<<<<<<< HEAD
version https://git-lfs.github.com/spec/v1
oid sha256:6fbf636610b21e1657a5990366ef99d67bfb4e5c2cc8458f1d2c2d50dd38bc0d
size 39914
=======
DATE,PRICE
2016-01-01,475.0
2016-01-02,475.0
2016-01-03,450.0
2016-01-04,450.0
2016-01-05,437.5
2016-01-06,430.0
2016-01-07,425.0
2016-01-08,408.3333333333333
2016-01-09,408.3333333333333
2016-01-10,420.8333333333333
2016-01-11,417.85714285714283
2016-01-12,410.7142857142857
2016-01-13,417.85714285714283
2016-01-14,422.14285714285717
2016-01-15,426.42857142857144
2016-01-16,419.2857142857143
2016-01-17,410.0
2016-01-18,410.0
2016-01-19,413.3333333333333
2016-01-20,396.6666666666667
2016-01-21,385.0
2016-01-22,375.8333333333333
2016-01-23,367.5
2016-01-24,365.0
2016-01-25,365.0
2016-01-26,369.2857142857143
2016-01-27,376.42857142857144
2016-01-28,382.14285714285717
2016-01-29,385.7142857142857
2016-01-30,392.85714285714283
2016-01-31,400.0
2016-02-01,392.85714285714283
2016-02-02,385.7142857142857
2016-02-03,378.57142857142856
2016-02-04,371.42857142857144
2016-02-05,371.42857142857144
2016-02-06,371.42857142857144
2016-02-07,371.42857142857144
2016-02-08,378.57142857142856
2016-02-09,385.7142857142857
2016-02-10,392.85714285714283
2016-02-11,400.0
2016-02-12,400.0
2016-02-13,421.42857142857144
2016-02-14,428.57142857142856
2016-02-15,435.7142857142857
2016-02-16,450.0
2016-02-17,471.42857142857144
2016-02-18,492.85714285714283
2016-02-19,500.0
2016-02-20,491.6666666666667
2016-02-21,500.0
2016-02-22,508.3333333333333
2016-02-23,516.6666666666666
2016-02-24,516.6666666666666
2016-02-25,520.0
2016-02-26,545.0
2016-02-27,557.1428571428571
2016-02-28,566.6666666666666
2016-02-29,583.3333333333334
2016-03-01,600.0
2016-03-02,591.6666666666666
2016-03-03,580.0
2016-03-04,571.6666666666666
2016-03-05,560.0
2016-03-06,550.0
2016-03-07,533.3333333333334
2016-03-08,516.6666666666666
2016-03-09,520.0
2016-03-10,535.0
2016-03-11,525.0
2016-03-12,520.8333333333334
2016-03-13,525.0
2016-03-14,531.25
2016-03-15,525.0
2016-03-16,518.75
2016-03-17,507.5
2016-03-18,520.0
2016-03-19,532.5
2016-03-20,532.5
2016-03-21,516.0
2016-03-22,505.0
2016-03-23,506.0
2016-03-24,500.0
2016-03-25,493.75
2016-03-26,493.75
2016-03-27,493.75
2016-03-28,518.75
2016-03-29,537.5
2016-03-30,537.5
2016-03-31,530.0
2016-04-01,525.0
2016-04-02,515.0
2016-04-03,516.6666666666666
2016-04-04,508.3333333333333
2016-04-05,509.1666666666667
2016-04-06,507.85714285714283
2016-04-07,507.85714285714283
2016-04-08,507.85714285714283
2016-04-09,505.0
2016-04-10,494.2857142857143
2016-04-11,497.85714285714283
2016-04-12,492.5
2016-04-13,499.1666666666667
2016-04-14,499.0
2016-04-15,501.0
2016-04-16,515.0
2016-04-17,535.0
2016-04-18,535.0
2016-04-19,537.5
2016-04-20,543.3333333333334
2016-04-21,547.1428571428571
2016-04-22,552.8571428571429
2016-04-23,556.4285714285714
2016-04-24,557.5
2016-04-25,565.0
2016-04-26,573.3333333333334
2016-04-27,585.8333333333334
2016-04-28,603.3333333333334
2016-04-29,620.0
2016-04-30,640.8333333333334
2016-05-01,656.4285714285714
2016-05-02,685.7142857142857
2016-05-03,714.2857142857143
2016-05-04,735.7142857142857
2016-05-05,739.2857142857143
2016-05-06,760.7142857142857
2016-05-07,789.2857142857143
2016-05-08,796.4285714285714
2016-05-09,814.2857142857143
2016-05-10,814.2857142857143
2016-05-11,828.5714285714286
2016-05-12,861.4285714285714
2016-05-13,875.7142857142857
2016-05-14,882.8571428571429
2016-05-15,907.8571428571429
2016-05-16,907.8571428571429
2016-05-17,930.7142857142857
2016-05-18,937.8571428571429
2016-05-19,933.5714285714286
2016-05-20,940.7142857142857
2016-05-21,933.5714285714286
2016-05-22,922.8571428571429
2016-05-23,922.8571428571429
2016-05-24,924.2857142857143
2016-05-25,920.0
2016-05-26,924.0
2016-05-27,917.5
2016-05-28,923.3333333333334
2016-05-29,935.0
2016-05-30,933.7997256515775
2016-05-31,930.5829903978051
2016-06-01,925.925925925926
2016-06-02,921.604938271605
2016-06-03,917.283950617284
2016-06-04,912.962962962963
2016-06-05,908.641975308642
2016-06-06,904.320987654321
2016-06-07,900.0
2016-06-08,900.0
2016-06-09,866.6666666666666
2016-06-10,900.0
2016-06-11,920.0
2016-06-12,900.0
2016-06-13,900.0
2016-06-14,866.6666666666666
2016-06-15,857.1428571428571
2016-06-16,866.6666666666666
2016-06-17,840.0
2016-06-18,800.0
2016-06-19,800.0
2016-06-20,825.0
2016-06-21,900.0
2016-06-22,987.5
2016-06-23,1010.0
2016-06-24,1025.0
2016-06-25,1035.7142857142858
2016-06-26,1075.0
2016-06-27,1091.6666666666667
2016-06-28,1091.6666666666667
2016-06-29,1066.6666666666667
2016-06-30,1050.0
2016-07-01,1066.6666666666667
2016-07-02,1066.6666666666667
2016-07-03,1066.6666666666667
2016-07-04,1080.0
2016-07-05,1075.0
2016-07-06,1075.0
2016-07-07,1075.0
2016-07-08,1050.0
2016-07-09,1050.0
2016-07-10,1060.0
2016-07-11,1033.3333333333333
2016-07-12,1014.2857142857143
2016-07-13,1000.0
2016-07-14,1000.0
2016-07-15,983.3333333333334
2016-07-16,966.6666666666666
2016-07-17,950.0
2016-07-18,966.6666666666666
2016-07-19,983.3333333333334
2016-07-20,1000.0
2016-07-21,983.3333333333334
2016-07-22,950.0
2016-07-23,916.6666666666666
2016-07-24,883.3333333333334
2016-07-25,850.0
2016-07-26,833.3333333333334
2016-07-27,828.5714285714286
2016-07-28,814.2857142857143
2016-07-29,814.2857142857143
2016-07-30,816.6666666666666
2016-07-31,820.0
2016-08-01,820.0
2016-08-02,820.0
2016-08-03,840.0
2016-08-04,860.0
2016-08-05,880.0
2016-08-06,916.6666666666666
2016-08-07,942.8571428571429
2016-08-08,985.7142857142857
2016-08-09,1000.0
2016-08-10,1014.2857142857143
2016-08-11,1028.5714285714287
2016-08-12,1042.857142857143
2016-08-13,1028.5714285714287
2016-08-14,1014.2857142857143
2016-08-15,1000.0
2016-08-16,1000.0
2016-08-17,1000.0
2016-08-18,1000.0
2016-08-19,1000.0
2016-08-20,980.0
2016-08-21,960.0
2016-08-22,940.0
2016-08-23,925.0
2016-08-24,900.0
2016-08-25,900.0
2016-08-26,900.0
2016-08-27,900.0
2016-08-28,900.0
2016-08-29,900.0
2016-08-30,900.0
2016-08-31,885.7142857142857
2016-09-01,871.4285714285714
2016-09-02,857.1428571428571
2016-09-03,842.8571428571429
2016-09-04,828.5714285714286
2016-09-05,814.2857142857143
2016-09-06,800.0
2016-09-07,800.0
2016-09-08,800.0
2016-09-09,800.0
2016-09-10,800.0
2016-09-11,814.2857142857143
2016-09-12,814.2857142857143
2016-09-13,814.2857142857143
2016-09-14,814.2857142857143
2016-09-15,814.2857142857143
2016-09-16,814.2857142857143
2016-09-17,814.2857142857143
2016-09-18,800.0
2016-09-19,800.0
2016-09-20,800.0
2016-09-21,800.0
2016-09-22,816.6666666666666
2016-09-23,816.6666666666666
2016-09-24,816.6666666666666
2016-09-25,820.0
2016-09-26,820.0
2016-09-27,820.0
2016-09-28,816.6666666666666
2016-09-29,783.3333333333334
2016-09-30,766.6666666666666
2016-10-01,750.0
2016-10-02,742.8571428571429
2016-10-03,728.5714285714286
2016-10-04,700.0
2016-10-05,671.4285714285714
2016-10-06,657.1428571428571
2016-10-07,650.0
2016-10-08,633.3333333333334
2016-10-09,616.6666666666666
2016-10-10,600.0
2016-10-11,600.0
2016-10-12,600.0
2016-10-13,600.0
2016-10-14,600.0
2016-10-15,600.0
2016-10-16,600.0
2016-10-17,600.0
2016-10-18,600.0
2016-10-19,600.0
2016-10-20,600.0
2016-10-21,614.2857142857143
2016-10-22,628.5714285714286
2016-10-23,633.3333333333334
2016-10-24,650.0
2016-10-25,666.6666666666666
2016-10-26,683.3333333333334
2016-10-27,700.0
2016-10-28,700.0
2016-10-29,700.0
2016-10-30,700.0
2016-10-31,700.0
2016-11-01,700.0
2016-11-02,700.0
2016-11-03,714.2857142857143
2016-11-04,728.5714285714286
2016-11-05,742.8571428571429
2016-11-06,742.8571428571429
2016-11-07,742.8571428571429
2016-11-08,742.8571428571429
2016-11-09,742.8571428571429
2016-11-10,728.5714285714286
2016-11-11,685.7142857142857
2016-11-12,657.1428571428571
2016-11-13,642.8571428571429
2016-11-14,628.5714285714286
2016-11-15,614.2857142857143
2016-11-16,614.2857142857143
2016-11-17,614.2857142857143
2016-11-18,642.8571428571429
2016-11-19,657.1428571428571
2016-11-20,671.4285714285714
2016-11-21,685.7142857142857
2016-11-22,700.0
2016-11-23,700.0
2016-11-24,700.0
2016-11-25,700.0
2016-11-26,700.0
2016-11-27,700.0
2016-11-28,716.6666666666666
2016-11-29,733.3333333333334
2016-11-30,783.3333333333334
2016-12-01,833.3333333333334
2016-12-02,883.3333333333334
2016-12-03,933.3333333333334
2016-12-04,942.8571428571429
2016-12-05,971.4285714285714
2016-12-06,1000.0
2016-12-07,1000.0
2016-12-08,1000.0
2016-12-09,1000.0
2016-12-10,971.4285714285714
2016-12-11,942.8571428571429
2016-12-12,914.2857142857143
2016-12-13,857.1428571428571
2016-12-14,785.7142857142857
2016-12-15,714.2857142857143
2016-12-16,642.8571428571429
2016-12-17,600.0
2016-12-18,557.1428571428571
2016-12-19,514.2857142857143
2016-12-20,500.0
2016-12-21,500.0
2016-12-22,500.0
2016-12-23,500.0
2016-12-24,500.0
2016-12-25,500.0
2016-12-26,500.0
2016-12-27,500.0
2016-12-28,500.0
2016-12-29,483.3333333333333
2016-12-30,466.6666666666667
2016-12-31,458.3333333333333
2017-01-01,450.0
2017-01-02,435.7142857142857
2017-01-03,421.42857142857144
2017-01-04,407.14285714285717
2017-01-05,407.14285714285717
2017-01-06,407.14285714285717
2017-01-07,400.0
2017-01-08,385.7142857142857
2017-01-09,371.42857142857144
2017-01-10,357.14285714285717
2017-01-11,350.0
2017-01-12,333.3333333333333
2017-01-13,325.0
2017-01-14,308.3333333333333
2017-01-15,308.3333333333333
2017-01-16,308.3333333333333
2017-01-17,308.3333333333333
2017-01-18,307.14285714285717
2017-01-19,307.14285714285717
2017-01-20,307.14285714285717
2017-01-21,314.2857142857143
2017-01-22,328.57142857142856
2017-01-23,328.57142857142856
2017-01-24,328.57142857142856
2017-01-25,328.57142857142856
2017-01-26,333.3333333333333
2017-01-27,330.0
2017-01-28,320.0
2017-01-29,300.0
2017-01-30,300.0
2017-01-31,300.0
2017-02-01,300.0
2017-02-02,300.0
2017-02-03,300.0
2017-02-04,300.0
2017-02-05,300.0
2017-02-06,300.0
2017-02-07,300.0
2017-02-08,300.0
2017-02-09,300.0
2017-02-10,300.0
2017-02-11,300.0
2017-02-12,300.0
2017-02-13,300.0
2017-02-14,300.0
2017-02-15,300.0
2017-02-16,300.0
2017-02-17,285.7142857142857
2017-02-18,271.42857142857144
2017-02-19,257.14285714285717
2017-02-20,242.85714285714286
2017-02-21,228.57142857142858
2017-02-22,214.28571428571428
2017-02-23,200.0
2017-02-24,200.0
2017-02-25,200.0
2017-02-26,200.0
2017-02-27,200.0
2017-02-28,200.0
2017-03-01,200.0
2017-03-02,200.0
2017-03-03,200.0
2017-03-04,200.0
2017-03-05,200.0
2017-03-06,200.0
2017-03-07,200.0
2017-03-08,200.0
2017-03-09,200.0
2017-03-10,200.0
2017-03-11,200.0
2017-03-12,200.0
2017-03-13,200.0
2017-03-14,200.0
2017-03-15,200.0
2017-03-16,200.0
2017-03-17,200.0
2017-03-18,200.0
2017-03-19,214.28571428571428
2017-03-20,228.57142857142858
2017-03-21,242.85714285714286
2017-03-22,257.14285714285717
2017-03-23,271.42857142857144
2017-03-24,285.7142857142857
2017-03-25,300.0
2017-03-26,300.0
2017-03-27,300.0
2017-03-28,300.0
2017-03-29,300.0
2017-03-30,300.0
2017-03-31,300.0
2017-04-01,300.0
2017-04-02,300.0
2017-04-03,285.7142857142857
2017-04-04,271.42857142857144
2017-04-05,257.14285714285717
2017-04-06,242.85714285714286
2017-04-07,233.33333333333334
2017-04-08,216.66666666666666
2017-04-09,200.0
2017-04-10,200.0
2017-04-11,200.0
2017-04-12,200.0
2017-04-13,200.0
2017-04-14,200.0
2017-04-15,210.0
2017-04-16,230.0
2017-04-17,250.0
2017-04-18,270.0
2017-04-19,290.0
2017-04-20,291.6666666666667
2017-04-21,292.85714285714283
2017-04-22,300.0
2017-04-23,300.0
2017-04-24,300.0
2017-04-25,300.0
2017-04-26,300.0
2017-04-27,300.0
2017-04-28,300.0
2017-04-29,300.0
2017-04-30,300.0
2017-05-01,300.0
2017-05-02,300.0
2017-05-03,299.15771484375
2017-05-04,296.77734375
2017-05-05,293.07861328125
2017-05-06,287.841796875
2017-05-07,282.60498046875
2017-05-08,277.3681640625
2017-05-09,272.13134765625
2017-05-10,266.89453125
2017-05-11,261.65771484375
2017-05-12,256.4208984375
2017-05-13,251.18408203125
2017-05-14,245.947265625
2017-05-15,240.71044921875
2017-05-16,235.4736328125
2017-05-17,230.23681640625
2017-05-18,225.0
2017-05-19,233.33333333333334
2017-05-20,237.5
2017-05-21,250.0
2017-05-22,266.6666666666667
2017-05-23,271.42857142857144
2017-05-24,285.7142857142857
2017-05-25,292.85714285714283
2017-05-26,300.0
2017-05-27,307.14285714285717
2017-05-28,308.3333333333333
2017-05-29,300.0
2017-05-30,300.0
2017-05-31,300.0
2017-06-01,300.0
2017-06-02,300.0
2017-06-03,300.0
2017-06-04,300.0
2017-06-05,300.0
2017-06-06,300.0
2017-06-07,300.0
2017-06-08,300.0
2017-06-09,300.0
2017-06-10,300.0
2017-06-11,300.0
2017-06-12,300.0
2017-06-13,300.0
2017-06-14,300.0
2017-06-15,300.0
2017-06-16,300.0
2017-06-17,300.0
2017-06-18,300.0
2017-06-19,300.0
2017-06-20,300.0
2017-06-21,300.0
2017-06-22,300.0
2017-06-23,300.0
2017-06-24,300.0
2017-06-25,300.0
2017-06-26,300.0
2017-06-27,300.0
2017-06-28,300.0
2017-06-29,300.0
2017-06-30,300.0
2017-07-01,300.0
2017-07-02,300.0
2017-07-03,300.0
2017-07-04,300.0
2017-07-05,300.0
2017-07-06,300.0
2017-07-07,300.0
2017-07-08,300.0
2017-07-09,300.0
2017-07-10,300.0
2017-07-11,300.0
2017-07-12,300.0
2017-07-13,300.0
2017-07-14,300.0
2017-07-15,300.0
2017-07-16,300.0
2017-07-17,300.0
2017-07-18,300.0
2017-07-19,300.0
2017-07-20,300.0
2017-07-21,300.0
2017-07-22,300.0
2017-07-23,300.0
2017-07-24,300.0
2017-07-25,300.0
2017-07-26,300.0
2017-07-27,300.0
2017-07-28,300.0
2017-07-29,300.0
2017-07-30,300.0
2017-07-31,300.0
2017-08-01,300.0
2017-08-02,300.0
2017-08-03,300.0
2017-08-04,300.0
2017-08-05,275.0
2017-08-06,260.0
2017-08-07,250.0
2017-08-08,242.85714285714286
2017-08-09,228.57142857142858
2017-08-10,214.28571428571428
2017-08-11,200.0
2017-08-12,200.0
2017-08-13,200.0
2017-08-14,200.0
2017-08-15,200.0
2017-08-16,200.0
2017-08-17,200.0
2017-08-18,200.0
2017-08-19,200.0
2017-08-20,200.0
2017-08-21,200.0
2017-08-22,200.0
2017-08-23,200.0
2017-08-24,200.0
2017-08-25,200.0
2017-08-26,200.0
2017-08-27,200.0
2017-08-28,200.0
2017-08-29,200.0
2017-08-30,200.0
2017-08-31,200.0
2017-09-01,200.0
2017-09-02,200.0
2017-09-03,200.0
2017-09-04,200.0
2017-09-05,200.0
2017-09-06,200.0
2017-09-07,200.0
2017-09-08,200.0
2017-09-09,200.0
2017-09-10,200.0
2017-09-11,200.0
2017-09-12,200.0
2017-09-13,200.0
2017-09-14,200.0
2017-09-15,200.0
2017-09-16,200.0
2017-09-17,200.0
2017-09-18,200.0
2017-09-19,200.0
2017-09-20,200.0
2017-09-21,200.0
2017-09-22,200.0
2017-09-23,200.0
2017-09-24,200.0
2017-09-25,200.0
2017-09-26,200.0
2017-09-27,200.0
2017-09-28,200.0
2017-09-29,200.0
2017-09-30,200.0
2017-10-01,200.0
2017-10-02,200.0
2017-10-03,200.0
2017-10-04,200.0
2017-10-05,200.0
2017-10-06,200.0
2017-10-07,200.0
2017-10-08,200.0
2017-10-09,200.0
2017-10-10,200.0
2017-10-11,200.0
2017-10-12,200.0
2017-10-13,200.0
2017-10-14,200.0
2017-10-15,200.0
2017-10-16,200.0
2017-10-17,200.0
2017-10-18,200.0
2017-10-19,200.0
2017-10-20,200.0
2017-10-21,200.0
2017-10-22,200.0
2017-10-23,207.14285714285714
2017-10-24,214.28571428571428
2017-10-25,228.57142857142858
2017-10-26,242.85714285714286
2017-10-27,250.0
2017-10-28,257.14285714285717
2017-10-29,266.6666666666667
2017-10-30,266.6666666666667
2017-10-31,258.3333333333333
2017-11-01,250.0
2017-11-02,230.0
2017-11-03,220.0
2017-11-04,210.0
2017-11-05,208.33333333333334
2017-11-06,200.0
2017-11-07,200.0
2017-11-08,200.0
2017-11-09,200.0
2017-11-10,200.0
2017-11-11,200.0
2017-11-12,200.0
2017-11-13,200.0
2017-11-14,200.0
2017-11-15,200.0
2017-11-16,200.0
2017-11-17,200.0
2017-11-18,200.0
2017-11-19,200.0
2017-11-20,200.0
2017-11-21,200.0
2017-11-22,200.0
2017-11-23,200.0
2017-11-24,211.42857142857142
2017-11-25,225.71428571428572
2017-11-26,230.0
2017-11-27,246.66666666666666
2017-11-28,260.0
2017-11-29,276.6666666666667
2017-11-30,286.6666666666667
2017-12-01,281.6666666666667
2017-12-02,278.3333333333333
2017-12-03,267.14285714285717
2017-12-04,252.14285714285714
2017-12-05,337.85714285714283
2017-12-06,416.42857142857144
2017-12-07,503.57142857142856
2017-12-08,553.5714285714286
2017-12-09,602.8571428571429
2017-12-10,663.5714285714286
2017-12-11,741.6666666666666
2017-12-12,699.1666666666666
2017-12-13,670.8333333333334
2017-12-14,642.5
2017-12-15,659.1666666666666
2017-12-16,671.6666666666666
2017-12-17,681.0
2017-12-18,692.5
2017-12-19,688.3333333333334
2017-12-20,679.1666666666666
2017-12-21,675.8333333333334
2017-12-22,655.8333333333334
2017-12-23,635.0
2017-12-24,625.7142857142857
2017-12-25,594.2857142857143
2017-12-26,580.0
2017-12-27,559.2857142857143
2017-12-28,533.5714285714286
2017-12-29,522.1428571428571
2017-12-30,511.42857142857144
2017-12-31,498.57142857142856
2018-01-01,494.2857142857143
2018-01-02,494.2857142857143
2018-01-03,497.14285714285717
2018-01-04,497.14285714285717
2018-01-05,496.6666666666667
2018-01-06,496.0
2018-01-07,500.0
2018-01-08,500.0
2018-01-09,493.3333333333333
2018-01-10,480.0
2018-01-11,446.6666666666667
2018-01-12,435.0
2018-01-13,436.0
2018-01-14,435.0
2018-01-15,434.2857142857143
2018-01-16,430.0
2018-01-17,427.14285714285717
2018-01-18,438.57142857142856
2018-01-19,440.0
2018-01-20,438.57142857142856
2018-01-21,440.0
2018-01-22,442.85714285714283
2018-01-23,439.2857142857143
2018-01-24,437.14285714285717
2018-01-25,429.2857142857143
2018-01-26,430.0
2018-01-27,427.14285714285717
2018-01-28,425.0
2018-01-29,421.6666666666667
2018-01-30,420.0
2018-01-31,420.0
2018-02-01,418.3333333333333
2018-02-02,420.8333333333333
2018-02-03,423.3333333333333
2018-02-04,424.2857142857143
2018-02-05,425.7142857142857
2018-02-06,423.57142857142856
2018-02-07,422.85714285714283
2018-02-08,422.85714285714283
2018-02-09,420.7142857142857
2018-02-10,417.14285714285717
2018-02-11,414.2857142857143
2018-02-12,410.0
2018-02-13,411.42857142857144
2018-02-14,412.85714285714283
2018-02-15,414.2857142857143
2018-02-16,415.0
2018-02-17,420.7142857142857
2018-02-18,427.85714285714283
2018-02-19,437.85714285714283
2018-02-20,456.42857142857144
2018-02-21,473.57142857142856
2018-02-22,495.7142857142857
2018-02-23,520.0
2018-02-24,540.0
2018-02-25,553.3333333333334
2018-02-26,571.6666666666666
2018-02-27,581.6666666666666
2018-02-28,586.6666666666666
2018-03-01,588.3333333333334
2018-03-02,586.6666666666666
2018-03-03,595.0
2018-03-04,591.4285714285714
2018-03-05,592.8571428571429
2018-03-06,595.7142857142857
2018-03-07,602.1428571428571
2018-03-08,605.0
2018-03-09,610.0
2018-03-10,605.7142857142857
2018-03-11,612.8571428571429
2018-03-12,615.7142857142857
2018-03-13,615.7142857142857
2018-03-14,617.8571428571429
2018-03-15,626.4285714285714
2018-03-16,634.2857142857143
2018-03-17,640.0
2018-03-18,648.3333333333334
2018-03-19,658.3333333333334
2018-03-20,671.6666666666666
2018-03-21,683.3333333333334
2018-03-22,694.1666666666666
2018-03-23,704.1666666666666
2018-03-24,710.7142857142857
2018-03-25,717.5
2018-03-26,734.1666666666666
2018-03-27,757.5
2018-03-28,785.8333333333334
2018-03-29,808.3333333333334
2018-03-30,828.3333333333334
2018-03-31,861.6666666666666
2018-04-01,878.5714285714286
2018-04-02,892.8571428571429
2018-04-03,892.8571428571429
2018-04-04,881.4285714285714
2018-04-05,864.2857142857143
2018-04-06,842.8571428571429
2018-04-07,800.0
2018-04-08,752.8571428571429
2018-04-09,720.0
2018-04-10,692.8571428571429
2018-04-11,671.4285714285714
2018-04-12,658.3333333333334
2018-04-13,650.0
2018-04-14,650.0
2018-04-15,666.6666666666666
2018-04-16,703.3333333333334
2018-04-17,740.0
2018-04-18,781.6666666666666
2018-04-19,805.7142857142857
2018-04-20,862.8571428571429
2018-04-21,920.0
2018-04-22,955.7142857142857
2018-04-23,981.4285714285714
2018-04-24,1007.1428571428571
2018-04-25,1028.5714285714287
2018-04-26,1042.857142857143
2018-04-27,1042.857142857143
2018-04-28,1050.0
2018-04-29,1064.2857142857142
2018-04-30,1071.4285714285713
2018-05-01,1078.5714285714287
2018-05-02,1085.7142857142858
2018-05-03,1092.857142857143
2018-05-04,1100.0
2018-05-05,1100.0
2018-05-06,1100.0
2018-05-07,1100.0
2018-05-08,1100.0
2018-05-09,1100.0
2018-05-10,1100.0
2018-05-11,1100.0
2018-05-12,1100.0
2018-05-13,1085.7142857142858
2018-05-14,1085.7142857142858
2018-05-15,1074.2857142857142
2018-05-16,1060.0
2018-05-17,1045.7142857142858
2018-05-18,1031.4285714285713
2018-05-19,1011.4285714285714
2018-05-20,1008.5714285714286
2018-05-21,991.4285714285714
2018-05-22,988.5714285714286
2018-05-23,987.1428571428571
2018-05-24,985.7142857142857
2018-05-25,982.8571428571429
2018-05-26,987.1428571428571
2018-05-27,988.3333333333334
2018-05-28,990.0
2018-05-29,988.3333333333334
2018-05-30,990.0
2018-05-31,988.3333333333334
2018-06-01,990.0
2018-06-02,990.0
2018-06-03,990.0
2018-06-04,962.8571428571429
2018-06-05,975.7142857142857
2018-06-06,975.7142857142857
2018-06-07,975.7142857142857
2018-06-08,977.1428571428571
2018-06-09,977.1428571428571
2018-06-10,978.5714285714286
2018-06-11,1007.1428571428571
2018-06-12,995.7142857142857
2018-06-13,995.7142857142857
2018-06-14,998.5714285714286
2018-06-15,998.5714285714286
2018-06-16,998.5714285714286
2018-06-17,998.5714285714286
2018-06-18,995.7142857142857
2018-06-19,998.5714285714286
2018-06-20,998.5714285714286
2018-06-21,998.5714285714286
2018-06-22,998.5714285714286
2018-06-23,1000.0
2018-06-24,1000.0
2018-06-25,1003.3333333333334
2018-06-26,1000.0
2018-06-27,1000.0
2018-06-28,1000.0
2018-06-29,1000.0
2018-06-30,1000.0
2018-07-01,1010.0
2018-07-02,1013.3333333333334
2018-07-03,1013.3333333333334
2018-07-04,1010.0
2018-07-05,1006.0
2018-07-06,1001.6666666666666
2018-07-07,1001.4285714285714
2018-07-08,998.5714285714286
2018-07-09,1000.0
2018-07-10,1000.0
2018-07-11,1003.5714285714286
2018-07-12,1007.8571428571429
2018-07-13,1012.1428571428571
2018-07-14,1010.7142857142857
2018-07-15,1009.2857142857143
2018-07-16,1006.4285714285714
2018-07-17,1006.4285714285714
2018-07-18,1002.8571428571429
2018-07-19,1000.0
2018-07-20,997.1428571428571
2018-07-21,997.1428571428571
2018-07-22,997.1428571428571
2018-07-23,997.1428571428571
2018-07-24,997.1428571428571
2018-07-25,997.1428571428571
2018-07-26,985.7142857142857
2018-07-27,972.8571428571429
2018-07-28,967.1428571428571
2018-07-29,961.6666666666666
2018-07-30,945.0
2018-07-31,931.6666666666666
2018-08-01,921.6666666666666
2018-08-02,918.3333333333334
2018-08-03,915.0
2018-08-04,906.6666666666666
2018-08-05,905.7142857142857
2018-08-06,905.7142857142857
2018-08-07,914.2857142857143
2018-08-08,907.1428571428571
2018-08-09,900.0
2018-08-10,895.7142857142857
2018-08-11,888.5714285714286
2018-08-12,886.6666666666666
2018-08-13,880.0
2018-08-14,858.3333333333334
2018-08-15,850.0
2018-08-16,846.6666666666666
2018-08-17,838.3333333333334
2018-08-18,831.6666666666666
2018-08-19,831.6666666666666
2018-08-20,826.0
2018-08-21,816.0
2018-08-22,808.0
2018-08-23,802.0
2018-08-24,810.0
2018-08-25,812.0
2018-08-26,812.0
2018-08-27,810.0
2018-08-28,815.0
2018-08-29,821.6666666666666
2018-08-30,830.0
2018-08-31,830.0
2018-09-01,831.6666666666666
2018-09-02,830.0
2018-09-03,835.7142857142857
2018-09-04,838.5714285714286
2018-09-05,840.0
2018-09-06,840.0
2018-09-07,840.0
2018-09-08,842.8571428571429
2018-09-09,848.5714285714286
2018-09-10,852.8571428571429
2018-09-11,848.5714285714286
2018-09-12,845.7142857142857
2018-09-13,845.7142857142857
2018-09-14,854.2857142857143
2018-09-15,875.7142857142857
2018-09-16,895.7142857142857
2018-09-17,914.2857142857143
2018-09-18,940.0
2018-09-19,962.8571428571429
2018-09-20,984.2857142857143
2018-09-21,998.5714285714286
2018-09-22,998.5714285714286
2018-09-23,998.3333333333334
2018-09-24,998.3333333333334
2018-09-25,1006.6666666666666
2018-09-26,1041.6666666666667
2018-09-27,1075.0
2018-09-28,1116.6666666666667
2018-09-29,1166.6666666666667
2018-09-30,1207.142857142857
2018-10-01,1278.5714285714287
2018-10-02,1335.7142857142858
2018-10-03,1342.857142857143
2018-10-04,1342.857142857143
2018-10-05,1335.7142857142858
2018-10-06,1307.142857142857
2018-10-07,1283.3333333333333
2018-10-08,1216.6666666666667
2018-10-09,1170.0
2018-10-10,1140.0
2018-10-11,1125.0
2018-10-12,1100.0
2018-10-13,1150.0
2018-10-14,1150.0
2018-10-15,1175.0
2018-10-16,1166.6666666666667
2018-10-17,1200.0
2018-10-18,1216.6666666666667
2018-10-19,1212.5
2018-10-20,1187.5
2018-10-21,1170.0
2018-10-22,1158.3333333333333
2018-10-23,1150.0
2018-10-24,1140.0
2018-10-25,1108.5714285714287
2018-10-26,1084.2857142857142
2018-10-27,1065.7142857142858
2018-10-28,1060.0
2018-10-29,1043.3333333333333
2018-10-30,1032.0
2018-10-31,1016.0
2018-11-01,1012.5
2018-11-02,1006.6666666666666
2018-11-03,1000.0
2018-11-04,1000.0
2018-11-05,950.0
2018-11-06,933.3333333333334
2018-11-07,900.0
2018-11-08,900.0
2018-11-09,866.6666666666666
2018-11-10,850.0
2018-11-11,850.0
2018-11-12,825.0
2018-11-13,795.0
2018-11-14,766.0
2018-11-15,746.6666666666666
2018-11-16,713.3333333333334
2018-11-17,696.0
2018-11-18,696.0
2018-11-19,616.0
2018-11-20,540.0
2018-11-21,512.5
2018-11-22,550.0
2018-11-23,612.5
2018-11-24,612.5
2018-11-25,612.5
2018-11-26,712.5
2018-11-27,816.6666666666666
2018-11-28,787.5
2018-11-29,783.3333333333334
2018-11-30,716.6666666666666
2018-12-01,712.5
2018-12-02,706.0
2018-12-03,682.5
2018-12-04,686.0
2018-12-05,686.0
2018-12-06,696.6666666666666
2018-12-07,705.0
2018-12-08,705.0
2018-12-09,710.0
2018-12-10,710.0
2018-12-11,700.0
2018-12-12,700.0
2018-12-13,662.5
2018-12-14,650.0
2018-12-15,616.6666666666666
2018-12-16,600.0
2018-12-17,600.0
2018-12-18,583.3333333333334
2018-12-19,562.5
2018-12-20,550.0
2018-12-21,550.0
2018-12-22,525.0
2018-12-23,508.3333333333333
2018-12-24,501.25
2018-12-25,501.25
2018-12-26,501.6666666666667
2018-12-27,501.6666666666667
2018-12-28,501.6666666666667
2018-12-29,490.0
2018-12-30,480.74675324675326
2018-12-31,472.37012987012986
2019-01-01,465.30844155844153
2019-01-02,460.0
2019-01-03,456.6666666666667
2019-01-04,467.5
2019-01-05,467.5
2019-01-06,469.0
2019-01-07,474.1666666666667
2019-01-08,482.5
2019-01-09,487.5
2019-01-10,495.8333333333333
2019-01-11,495.0
2019-01-12,495.0
2019-01-13,500.0
2019-01-14,500.0
2019-01-15,466.6666666666667
2019-01-16,425.0
2019-01-17,375.0
2019-01-18,375.0
2019-01-19,375.0
2019-01-20,381.25
2019-01-21,385.0
2019-01-22,400.0
2019-01-23,425.0
2019-01-24,455.0
2019-01-25,462.5
2019-01-26,467.85714285714283
2019-01-27,478.57142857142856
2019-01-28,491.6666666666667
2019-01-29,495.8333333333333
2019-01-30,495.0
2019-01-31,495.0
2019-02-01,495.0
2019-02-02,495.0
2019-02-03,500.0
2019-02-04,500.0
2019-02-05,500.0
2019-02-06,500.0
2019-02-07,500.0
2019-02-08,504.1666666666667
2019-02-09,504.1666666666667
2019-02-10,512.5
2019-02-11,521.4285714285714
2019-02-12,521.4285714285714
2019-02-13,528.5714285714286
2019-02-14,521.4285714285714
2019-02-15,510.7142857142857
2019-02-16,510.7142857142857
2019-02-17,504.1666666666667
2019-02-18,491.6666666666667
2019-02-19,491.6666666666667
2019-02-20,487.5
2019-02-21,495.8333333333333
2019-02-22,512.5
2019-02-23,512.5
2019-02-24,512.5
2019-02-25,512.5
2019-02-26,512.5
2019-02-27,508.3333333333333
2019-02-28,508.3333333333333
2019-03-01,500.0
2019-03-02,500.0
2019-03-03,500.0
2019-03-04,500.0
2019-03-05,500.0
2019-03-06,500.0
2019-03-07,500.0
2019-03-08,503.57142857142856
2019-03-09,503.57142857142856
2019-03-10,503.57142857142856
2019-03-11,503.57142857142856
2019-03-12,503.57142857142856
2019-03-13,504.1666666666667
2019-03-14,504.1666666666667
2019-03-15,496.6666666666667
2019-03-16,492.5
2019-03-17,492.5
2019-03-18,488.3333333333333
2019-03-19,486.0
2019-03-20,486.0
2019-03-21,486.0
2019-03-22,487.5
2019-03-23,488.75
2019-03-24,488.75
2019-03-25,488.75
2019-03-26,511.0
2019-03-27,534.1666666666666
2019-03-28,563.3333333333334
2019-03-29,568.5714285714286
2019-03-30,571.4285714285714
2019-03-31,600.0
2019-04-01,620.8333333333334
2019-04-02,625.0
2019-04-03,618.75
2019-04-04,618.75
2019-04-05,637.5
2019-04-06,687.5
2019-04-07,683.3333333333334
2019-04-08,685.0
2019-04-09,684.0
2019-04-10,686.6666666666666
2019-04-11,689.0
2019-04-12,694.0
2019-04-13,709.0
2019-04-14,709.0
2019-04-15,711.0
2019-04-16,718.75
2019-04-17,756.25
2019-04-18,795.0
2019-04-19,818.75
2019-04-20,833.3333333333334
2019-04-21,862.5
2019-04-22,925.0
2019-04-23,930.0
2019-04-24,950.0
2019-04-25,950.0
2019-04-26,950.0
2019-04-27,950.0
2019-04-28,950.0
2019-04-29,962.5
2019-04-30,975.0
2019-05-01,980.0
2019-05-02,970.0
2019-05-03,975.0
2019-05-04,978.5714285714286
2019-05-05,985.7142857142857
2019-05-06,971.4285714285714
2019-05-07,964.2857142857143
2019-05-08,958.3333333333334
2019-05-09,966.6666666666666
2019-05-10,958.3333333333334
2019-05-11,950.0
2019-05-12,941.6666666666666
2019-05-13,954.1666666666666
2019-05-14,962.5
2019-05-15,962.5
2019-05-16,970.8333333333334
2019-05-17,979.1666666666666
2019-05-18,975.0
2019-05-19,966.6666666666666
2019-05-20,965.0
2019-05-21,960.0
2019-05-22,958.3333333333334
2019-05-23,958.3333333333334
2019-05-24,954.1666666666666
2019-05-25,945.8333333333334
2019-05-26,954.1666666666666
2019-05-27,946.4285714285714
2019-05-28,941.6666666666666
2019-05-29,940.0
2019-05-30,920.0
2019-05-31,906.25
2019-06-01,912.5
2019-06-02,900.0
2019-06-03,937.5
2019-06-04,937.5
2019-06-05,910.0
2019-06-06,912.5
2019-06-07,890.0
2019-06-08,865.0
2019-06-09,845.0
2019-06-10,795.0
2019-06-11,795.8333333333334
2019-06-12,795.8333333333334
2019-06-13,792.8571428571429
2019-06-14,790.0
2019-06-15,804.2857142857143
2019-06-16,804.2857142857143
2019-06-17,818.5714285714286
2019-06-18,818.5714285714286
2019-06-19,829.2857142857143
2019-06-20,832.8571428571429
2019-06-21,842.8571428571429
2019-06-22,832.1428571428571
2019-06-23,839.2857142857143
2019-06-24,825.0
2019-06-25,835.7142857142857
2019-06-26,825.0
2019-06-27,828.5714285714286
2019-06-28,821.4285714285714
2019-06-29,817.8571428571429
2019-06-30,812.5
2019-07-01,815.0
2019-07-02,790.0
2019-07-03,785.0
2019-07-04,776.0
2019-07-05,770.0
2019-07-06,770.0
2019-07-07,770.0
2019-07-08,776.0
2019-07-09,784.0
2019-07-10,784.0
2019-07-11,784.0
2019-07-12,785.0
2019-07-13,793.3333333333334
2019-07-14,797.8571428571429
2019-07-15,797.8571428571429
2019-07-16,795.7142857142857
2019-07-17,797.8571428571429
2019-07-18,797.8571428571429
2019-07-19,795.7142857142857
2019-07-20,790.7142857142857
2019-07-21,785.7142857142857
2019-07-22,784.2857142857143
2019-07-23,784.2857142857143
2019-07-24,782.8571428571429
2019-07-25,784.2857142857143
2019-07-26,785.0
2019-07-27,785.0
2019-07-28,784.1666666666666
2019-07-29,784.1666666666666
2019-07-30,786.6666666666666
2019-07-31,788.0
2019-08-01,785.0
2019-08-02,787.0
2019-08-03,789.0
2019-08-04,786.6666666666666
2019-08-05,780.0
2019-08-06,773.3333333333334
2019-08-07,762.8571428571429
2019-08-08,755.7142857142857
2019-08-09,753.5714285714286
2019-08-10,750.0
2019-08-11,750.0
2019-08-12,755.7142857142857
2019-08-13,747.1428571428571
2019-08-14,755.0
2019-08-15,761.0
2019-08-16,746.0
2019-08-17,729.0
2019-08-18,710.0
2019-08-19,707.0
2019-08-20,725.0
2019-08-21,719.1666666666666
2019-08-22,715.0
2019-08-23,717.5
2019-08-24,719.1666666666666
2019-08-25,727.0
2019-08-26,715.0
2019-08-27,695.0
2019-08-28,697.5
2019-08-29,720.0
2019-08-30,720.0
2019-08-31,713.75
2019-09-01,711.0
2019-09-02,721.6666666666666
2019-09-03,735.0
2019-09-04,742.0
2019-09-05,722.0
2019-09-06,718.3333333333334
2019-09-07,719.1666666666666
2019-09-08,731.6666666666666
2019-09-09,725.8333333333334
2019-09-10,719.1666666666666
2019-09-11,723.5714285714286
2019-09-12,715.7142857142857
2019-09-13,708.5714285714286
2019-09-14,694.2857142857143
2019-09-15,667.8571428571429
2019-09-16,660.7142857142857
2019-09-17,646.4285714285714
2019-09-18,630.7142857142857
2019-09-19,632.8571428571429
2019-09-20,630.0
2019-09-21,638.5714285714286
2019-09-22,646.6666666666666
2019-09-23,631.6666666666666
2019-09-24,637.5
2019-09-25,637.0
2019-09-26,636.25
2019-09-27,628.75
2019-09-28,616.25
2019-09-29,616.25
2019-09-30,621.6666666666666
2019-10-01,623.3333333333334
2019-10-02,636.25
2019-10-03,647.0
2019-10-04,657.0
2019-10-05,675.0
2019-10-06,691.6666666666666
2019-10-07,696.4285714285714
2019-10-08,705.0
2019-10-09,720.0
2019-10-10,739.2857142857143
2019-10-11,764.2857142857143
2019-10-12,785.0
2019-10-13,777.8571428571429
2019-10-14,780.0
2019-10-15,785.7142857142857
2019-10-16,787.1428571428571
2019-10-17,782.1428571428571
2019-10-18,775.7142857142857
2019-10-19,757.8571428571429
2019-10-20,761.4285714285714
2019-10-21,773.5714285714286
2019-10-22,773.5714285714286
2019-10-23,775.0
2019-10-24,776.4285714285714
2019-10-25,779.2857142857143
2019-10-26,792.5
2019-10-27,801.0
2019-10-28,821.0
2019-10-29,831.25
2019-10-30,841.6666666666666
2019-10-31,862.5
2019-11-01,900.0
2019-11-02,900.0
2019-11-03,875.0
2019-11-04,833.3333333333334
2019-11-05,825.0
2019-11-06,825.0
2019-11-07,820.0
2019-11-08,805.0
2019-11-09,795.8333333333334
2019-11-10,781.6666666666666
2019-11-11,773.3333333333334
2019-11-12,769.1666666666666
2019-11-13,769.1666666666666
2019-11-14,765.8333333333334
2019-11-15,765.8333333333334
2019-11-16,769.0
2019-11-17,769.0
2019-11-18,764.0
2019-11-19,749.0
2019-11-20,740.8333333333334
2019-11-21,727.5
2019-11-22,710.8333333333334
2019-11-23,766.4285714285714
2019-11-24,770.8333333333334
2019-11-25,845.8333333333334
2019-11-26,929.1666666666666
2019-11-27,1004.1666666666666
2019-11-28,1012.5
2019-11-29,1095.8333333333333
2019-11-30,1095.0
2019-12-01,1154.1666666666667
2019-12-02,1150.0
2019-12-03,1200.0
2019-12-04,1270.0
2019-12-05,1400.0
2019-12-06,1470.0
2019-12-07,1470.0
2019-12-08,1476.6666666666667
2019-12-09,1476.6666666666667
2019-12-10,1490.0
2019-12-11,1550.9418424277185
2019-12-12,1680.0
2019-12-13,2015.0
2019-12-14,1993.3333333333333
2019-12-15,1988.75
2019-12-16,2041.0
2019-12-17,2059.1666666666665
2019-12-18,2047.857142857143
2019-12-19,2057.8571428571427
2019-12-20,2015.0
2019-12-21,2000.7142857142858
2019-12-22,1904.2857142857142
2019-12-23,1772.142857142857
2019-12-24,1661.4285714285713
2019-12-25,1585.7142857142858
2019-12-26,1496.4285714285713
2019-12-27,1439.2857142857142
2019-12-28,1385.7142857142858
2019-12-29,1400.0
2019-12-30,1400.0
2019-12-31,1405.0
2020-01-01,1410.0
2020-01-02,1431.25
2020-01-03,1393.75
2020-01-04,1387.5
2020-01-05,1400.0
2020-01-06,1430.0
2020-01-07,1441.6666666666667
2020-01-08,1445.8333333333333
2020-01-09,1450.0
2020-01-10,1503.5714285714287
2020-01-11,1512.5
2020-01-12,1517.5
2020-01-13,1521.6666666666667
2020-01-14,1534.1666666666667
2020-01-15,1534.1666666666667
2020-01-16,1521.6666666666667
2020-01-17,1488.3333333333333
2020-01-18,1486.4285714285713
2020-01-19,1467.857142857143
2020-01-20,1464.2857142857142
2020-01-21,1450.7142857142858
2020-01-22,1422.142857142857
2020-01-23,1425.8333333333333
2020-01-24,1380.0
2020-01-25,1361.0
2020-01-26,1363.75
2020-01-27,1326.6666666666667
2020-01-28,1250.0
2020-01-29,1237.5
2020-01-30,1237.5
2020-01-31,1212.5
2020-02-01,1187.5
2020-02-02,1187.5
2020-02-03,1187.5
2020-02-04,1187.5
2020-02-05,1178.0632107023412
2020-02-06,1155.1896321070235
2020-02-07,1127.034448160535
2020-02-08,1107.2672240802676
2020-02-09,1087.5
2020-02-10,1083.3333333333333
2020-02-11,1083.3333333333333
2020-02-12,1087.5
2020-02-13,1090.0
2020-02-14,1091.6666666666667
2020-02-15,1092.5
2020-02-16,1088.3333333333333
2020-02-17,1075.8333333333333
2020-02-18,1075.7142857142858
2020-02-19,1072.142857142857
2020-02-20,1068.5714285714287
2020-02-21,1057.857142857143
2020-02-22,1053.5714285714287
2020-02-23,1050.0
2020-02-24,1050.0
2020-02-25,1037.5
2020-02-26,1041.6666666666667
2020-02-27,1025.8333333333333
2020-02-28,1017.5
2020-02-29,1021.6666666666666
2020-03-01,1025.7142857142858
2020-03-02,1040.0
2020-03-03,1050.7142857142858
2020-03-04,1075.7142857142858
2020-03-05,1117.857142857143
2020-03-06,1160.7142857142858
2020-03-07,1190.0
2020-03-08,1232.857142857143
2020-03-09,1286.4285714285713
2020-03-10,1340.0
2020-03-11,1365.0
2020-03-12,1393.5714285714287
2020-03-13,1425.7142857142858
2020-03-14,1453.5714285714287
2020-03-15,1470.8333333333333
2020-03-16,1471.6666666666667
2020-03-17,1475.8333333333333
2020-03-18,1481.0
2020-03-19,1482.0
2020-03-20,1477.0
2020-03-21,1477.5
2020-03-22,1477.5
2020-03-23,1476.6666666666667
2020-03-24,1477.5
2020-03-25,1477.5
2020-03-26,1477.4913929596942
2020-03-27,1477.460750192089
2020-03-28,1477.4008392271533
2020-03-29,1477.100734323759
2020-03-30,1476.8006294203649
2020-03-31,1476.5005245169707
2020-04-01,1476.2004196135767
2020-04-02,1475.9003147101826
2020-04-03,1475.6002098067884
2020-04-04,1475.3001049033942
2020-04-05,1475.0
2020-04-06,1466.6666666666667
2020-04-07,1500.0
2020-04-08,1500.0
2020-04-09,1495.8333333333333
2020-04-10,1495.8333333333333
2020-04-11,1505.0
2020-04-12,1506.25
2020-04-13,1525.0
2020-04-14,1487.5
2020-04-15,1473.4658734010964
2020-04-16,1463.9961169483784
2020-04-17,1456.903302021471
2020-04-18,1450.0
2020-04-19,1443.3333333333333
2020-04-20,1445.0
2020-04-21,1445.0
2020-04-22,1445.0
2020-04-23,1445.0
2020-04-24,1457.5
2020-04-25,1470.0
2020-04-26,1487.5
2020-04-27,1500.0
2020-04-28,1500.0
2020-04-29,1500.0
2020-04-30,1500.0
2020-05-01,1500.0
2020-05-02,1500.0
2020-05-03,1483.3333333333333
2020-05-04,1466.6666666666667
2020-05-05,1475.0
2020-05-06,1462.5
2020-05-07,1462.5
2020-05-08,1462.5
2020-05-09,1460.0
2020-05-10,1462.5
2020-05-11,1462.5
2020-05-12,1447.5
2020-05-13,1441.25
2020-05-14,1443.0
2020-05-15,1444.1666666666667
2020-05-16,1435.8333333333333
2020-05-17,1430.7142857142858
2020-05-18,1427.5
2020-05-19,1417.5
2020-05-20,1413.3333333333333
2020-05-21,1405.0
2020-05-22,1396.6666666666667
2020-05-23,1396.6666666666667
2020-05-24,1393.3333333333333
2020-05-25,1393.3333333333333
2020-05-26,1396.6666666666667
2020-05-27,1395.0
2020-05-28,1391.6666666666667
2020-05-29,1387.5
2020-05-30,1385.0
2020-05-31,1389.0
2020-06-01,1389.0
2020-06-02,1384.0
2020-06-03,1401.0
2020-06-04,1435.0
2020-06-05,1455.0
2020-06-06,1458.3333333333333
2020-06-07,1483.3333333333333
2020-06-08,1483.3333333333333
2020-06-09,1500.8333333333333
2020-06-10,1506.0
2020-06-11,1506.0
2020-06-12,1526.0
2020-06-13,1531.0
2020-06-14,1526.25
2020-06-15,1571.0
2020-06-16,1595.0
2020-06-17,1595.8333333333333
2020-06-18,1583.3333333333333
2020-06-19,1566.6666666666667
2020-06-20,1562.5
2020-06-21,1562.5
2020-06-22,1545.8333333333333
2020-06-23,1554.1666666666667
2020-06-24,1562.5
2020-06-25,1608.3333333333333
2020-06-26,1658.3333333333333
2020-06-27,1662.5
2020-06-28,1662.5
2020-06-29,1679.1666666666667
2020-06-30,1633.3333333333333
2020-07-01,1654.1666666666667
2020-07-02,1658.3333333333333
2020-07-03,1658.3333333333333
2020-07-04,1683.3333333333333
2020-07-05,1683.3333333333333
2020-07-06,1695.8333333333333
2020-07-07,1729.1666666666667
2020-07-08,1700.0
2020-07-09,1695.8333333333333
2020-07-10,1683.3333333333333
2020-07-11,1691.6666666666667
2020-07-12,1691.6666666666667
2020-07-13,1662.5
2020-07-14,1704.1666666666667
2020-07-15,1741.6666666666667
2020-07-16,1750.0
2020-07-17,1762.5
2020-07-18,1779.1666666666667
2020-07-19,1779.1666666666667
2020-07-20,1795.8333333333333
2020-07-21,1816.6666666666667
2020-07-22,1812.5
2020-07-23,1812.5
2020-07-24,1808.3333333333333
2020-07-25,1800.0
2020-07-26,1800.0
2020-07-27,1691.6666666666667
2020-07-28,1691.6666666666667
2020-07-29,1716.6666666666667
2020-07-30,1733.3333333333333
2020-07-31,1766.6666666666667
2020-08-01,1775.0
2020-08-02,1775.0
2020-08-03,1916.6666666666667
2020-08-04,1908.3333333333333
2020-08-05,1900.0
2020-08-06,1900.0
2020-08-07,1900.0
2020-08-08,1916.6666666666667
2020-08-09,1916.6666666666667
2020-08-10,1916.6666666666667
2020-08-11,1916.6666666666667
2020-08-12,1916.6666666666667
2020-08-13,1900.0
2020-08-14,1900.0
2020-08-15,1900.0
2020-08-16,1900.0
2020-08-17,1891.6666666666667
2020-08-18,1891.6666666666667
2020-08-19,1900.0
2020-08-20,1920.0
2020-08-21,1912.5
2020-08-22,1912.5
2020-08-23,1925.0
2020-08-24,1980.0
2020-08-25,2030.0
2020-08-26,2070.0
2020-08-27,2083.3333333333335
2020-08-28,2092.8571428571427
2020-08-29,2125.0
2020-08-30,2155.0
2020-08-31,2140.0
2020-09-01,2130.0
2020-09-02,2130.0
2020-09-03,2100.0
2020-09-04,2085.0
2020-09-05,2085.0
2020-09-06,2085.0
2020-09-07,2095.0
2020-09-08,2115.0
2020-09-09,2130.0
2020-09-10,2180.0
2020-09-11,2206.25
2020-09-12,2220.0
2020-09-13,2225.0
2020-09-14,2258.3333333333335
2020-09-15,2291.6666666666665
2020-09-16,2312.5
2020-09-17,2320.8333333333335
2020-09-18,2317.8571428571427
2020-09-19,2314.285714285714
2020-09-20,2325.0
2020-09-21,2300.0
2020-09-22,2275.0
2020-09-23,2250.0
2020-09-24,2233.3333333333335
2020-09-25,2220.0
2020-09-26,2212.5
2020-09-27,2212.5
2020-09-28,2216.6666666666665
2020-09-29,2200.0
2020-09-30,2175.0000000000005
>>>>>>> 6ac9248b3ef33a88bcb4b748e11d3743f40f9979
