<<<<<<< HEAD
version https://git-lfs.github.com/spec/v1
oid sha256:597394a45eea0e0db6fcd7958d48cd83117486d91a9e690cec300f4038ab218b
size 34812
=======
DATE,PRICE
2016-01-01,600.0
2016-01-02,600.0
2016-01-03,600.0
2016-01-04,600.0
2016-01-05,600.0
2016-01-06,600.0
2016-01-07,600.0
2016-01-08,600.0
2016-01-09,600.0
2016-01-10,600.0
2016-01-11,600.0
2016-01-12,600.0
2016-01-13,600.0
2016-01-14,600.0
2016-01-15,600.0
2016-01-16,600.0
2016-01-17,600.0
2016-01-18,600.0
2016-01-19,600.0
2016-01-20,600.0
2016-01-21,600.0
2016-01-22,600.0
2016-01-23,600.0
2016-01-24,600.0
2016-01-25,600.0
2016-01-26,600.0
2016-01-27,600.0
2016-01-28,600.0
2016-01-29,600.0
2016-01-30,600.0
2016-01-31,600.0
2016-02-01,600.0
2016-02-02,600.0
2016-02-03,600.0
2016-02-04,600.0
2016-02-05,600.0
2016-02-06,600.0
2016-02-07,600.0
2016-02-08,600.0
2016-02-09,600.0
2016-02-10,560.0
2016-02-11,520.0
2016-02-12,500.0
2016-02-13,500.0
2016-02-14,500.0
2016-02-15,500.0
2016-02-16,500.0
2016-02-17,550.0
2016-02-18,600.0
2016-02-19,600.0
2016-02-20,600.0
2016-02-21,600.0
2016-02-22,600.0
2016-02-23,550.0
2016-02-24,500.0
2016-02-25,450.0
2016-02-26,525.0
2016-02-27,525.0
2016-02-28,525.0
2016-02-29,600.0
2016-03-01,700.0
2016-03-02,800.0
2016-03-03,900.0
2016-03-04,900.0
2016-03-05,900.0
2016-03-06,900.0
2016-03-07,900.0
2016-03-08,900.0
2016-03-09,925.0
2016-03-10,950.0
2016-03-11,966.6666666666666
2016-03-12,1000.0
2016-03-13,1000.0
2016-03-14,1000.0
2016-03-15,1000.0
2016-03-16,1000.0
2016-03-17,1000.0
2016-03-18,1000.0
2016-03-19,1000.0
2016-03-20,1000.0
2016-03-21,1000.0
2016-03-22,1000.0
2016-03-23,1000.0
2016-03-24,1000.0
2016-03-25,1000.0
2016-03-26,1000.0
2016-03-27,1000.0
2016-03-28,1000.0
2016-03-29,1000.0
2016-03-30,1000.0
2016-03-31,1000.0
2016-04-01,1000.0
2016-04-02,1000.0
2016-04-03,1000.0
2016-04-04,1000.0
2016-04-05,1000.0
2016-04-06,1000.0
2016-04-07,1000.0
2016-04-08,1000.0
2016-04-09,1000.0
2016-04-10,1000.0
2016-04-11,975.0
2016-04-12,960.0
2016-04-13,940.0
2016-04-14,925.0
2016-04-15,900.0
2016-04-16,900.0
2016-04-17,900.0
2016-04-18,900.0
2016-04-19,900.0
2016-04-20,900.0
2016-04-21,900.0
2016-04-22,909.2470588235295
2016-04-23,933.7411764705882
2016-04-24,968.6117647058824
2016-04-25,1009.3058823529411
2016-04-26,1050.0
2016-04-27,1100.0
2016-04-28,1100.0
2016-04-29,1125.0
2016-04-30,1125.0
2016-05-01,1125.0
2016-05-02,1200.0
2016-05-03,1200.0
2016-05-04,1200.0
2016-05-05,1200.0
2016-05-06,1200.0
2016-05-07,1200.0
2016-05-08,1200.0
2016-05-09,1200.0
2016-05-10,1200.0
2016-05-11,1200.0
2016-05-12,1200.0
2016-05-13,1200.0
2016-05-14,1200.0
2016-05-15,1200.0
2016-05-16,1200.0
2016-05-17,1240.0
2016-05-18,1280.0
2016-05-19,1320.0
2016-05-20,1360.0
2016-05-21,1360.0
2016-05-22,1360.0
2016-05-23,1400.0
2016-05-24,1400.0
2016-05-25,1400.0
2016-05-26,1400.0
2016-05-27,1400.0
2016-05-28,1400.0
2016-05-29,1400.0
2016-05-30,1400.0
2016-05-31,1400.0
2016-06-01,1400.0
2016-06-02,1400.0
2016-06-03,1400.0
2016-06-04,1400.0
2016-06-05,1400.0
2016-06-06,1400.0
2016-06-07,1400.0
2016-06-08,1400.0
2016-06-09,1400.0
2016-06-10,1400.0
2016-06-11,1400.0
2016-06-12,1400.0
2016-06-13,1400.0
2016-06-14,1400.0
2016-06-15,1400.0
2016-06-16,1414.2857142857142
2016-06-17,1428.5714285714287
2016-06-18,1442.857142857143
2016-06-19,1457.142857142857
2016-06-20,1471.4285714285713
2016-06-21,1485.7142857142858
2016-06-22,1500.0
2016-06-23,1542.857142857143
2016-06-24,1585.7142857142858
2016-06-25,1628.5714285714284
2016-06-26,1671.4285714285716
2016-06-27,1714.2857142857142
2016-06-28,1757.1428571428573
2016-06-29,1800.0
2016-06-30,1800.0
2016-07-01,1785.7142857142858
2016-07-02,1771.4285714285716
2016-07-03,1757.1428571428573
2016-07-04,1742.8571428571427
2016-07-05,1728.5714285714284
2016-07-06,1714.2857142857142
2016-07-07,1700.0
2016-07-08,1700.0
2016-07-09,1700.0
2016-07-10,1700.0
2016-07-11,1700.0
2016-07-12,1700.0
2016-07-13,1714.2857142857142
2016-07-14,1728.5714285714284
2016-07-15,1742.8571428571427
2016-07-16,1757.1428571428573
2016-07-17,1771.4285714285716
2016-07-18,1785.7142857142858
2016-07-19,1800.0
2016-07-20,1800.0
2016-07-21,1800.0
2016-07-22,1800.0
2016-07-23,1800.0
2016-07-24,1800.0
2016-07-25,1800.0
2016-07-26,1800.0
2016-07-27,1800.0
2016-07-28,1800.0
2016-07-29,1800.0
2016-07-30,1800.0
2016-07-31,1800.0
2016-08-01,1800.0
2016-08-02,1800.0
2016-08-03,1800.0
2016-08-04,1800.0
2016-08-05,1800.0
2016-08-06,1800.0
2016-08-07,1800.0
2016-08-08,1800.0
2016-08-09,1800.0
2016-08-10,1800.0
2016-08-11,1800.0
2016-08-12,1800.0
2016-08-13,1800.0
2016-08-14,1800.0
2016-08-15,1800.0
2016-08-16,1800.0
2016-08-17,1800.0
2016-08-18,1800.0
2016-08-19,1750.0
2016-08-20,1714.2857142857142
2016-08-21,1671.4285714285716
2016-08-22,1628.5714285714284
2016-08-23,1585.7142857142858
2016-08-24,1550.0
2016-08-25,1500.0
2016-08-26,1500.0
2016-08-27,1500.0
2016-08-28,1500.0
2016-08-29,1500.0
2016-08-30,1500.0
2016-08-31,1500.0
2016-09-01,1500.0
2016-09-02,1500.0
2016-09-03,1500.0
2016-09-04,1500.0
2016-09-05,1500.0
2016-09-06,1500.0
2016-09-07,1500.0
2016-09-08,1500.0
2016-09-09,1500.0
2016-09-10,1500.0
2016-09-11,1500.0
2016-09-12,1500.0
2016-09-13,1500.0
2016-09-14,1500.0
2016-09-15,1500.0
2016-09-16,1500.0
2016-09-17,1500.0
2016-09-18,1500.0
2016-09-19,1500.0
2016-09-20,1500.0
2016-09-21,1500.0
2016-09-22,1500.0
2016-09-23,1500.0
2016-09-24,1500.0
2016-09-25,1500.0
2016-09-26,1500.0
2016-09-27,1500.0
2016-09-28,1500.0
2016-09-29,1450.0
2016-09-30,1400.0
2016-10-01,1350.0
2016-10-02,1300.0
2016-10-03,1250.0
2016-10-04,1200.0
2016-10-05,1200.0
2016-10-06,1200.0
2016-10-07,1250.0
2016-10-08,1300.0
2016-10-09,1350.0
2016-10-10,1400.0
2016-10-11,1414.2857142857142
2016-10-12,1457.142857142857
2016-10-13,1500.0
2016-10-14,1500.0
2016-10-15,1500.0
2016-10-16,1500.0
2016-10-17,1500.0
2016-10-18,1500.0
2016-10-19,1500.0
2016-10-20,1500.0
2016-10-21,1457.142857142857
2016-10-22,1414.2857142857142
2016-10-23,1371.4285714285713
2016-10-24,1328.5714285714287
2016-10-25,1285.7142857142858
2016-10-26,1242.857142857143
2016-10-27,1200.0
2016-10-28,1200.0
2016-10-29,1200.0
2016-10-30,1200.0
2016-10-31,1200.0
2016-11-01,1200.0
2016-11-02,1200.0
2016-11-03,1200.0
2016-11-04,1200.0
2016-11-05,1200.0
2016-11-06,1200.0
2016-11-07,1200.0
2016-11-08,1200.0
2016-11-09,1157.142857142857
2016-11-10,1114.2857142857142
2016-11-11,1071.4285714285713
2016-11-12,1028.5714285714287
2016-11-13,985.7142857142858
2016-11-14,942.8571428571429
2016-11-15,900.0
2016-11-16,900.0
2016-11-17,900.0
2016-11-18,900.0
2016-11-19,900.0
2016-11-20,900.0
2016-11-21,900.0
2016-11-22,957.1428571428571
2016-11-23,1042.857142857143
2016-11-24,1128.5714285714287
2016-11-25,1214.2857142857142
2016-11-26,1300.0
2016-11-27,1385.7142857142858
2016-11-28,1471.4285714285713
2016-11-29,1500.0
2016-11-30,1500.0
2016-12-01,1500.0
2016-12-02,1500.0
2016-12-03,1500.0
2016-12-04,1500.0
2016-12-05,1500.0
2016-12-06,1450.0
2016-12-07,1400.0
2016-12-08,1350.0
2016-12-09,1300.0
2016-12-10,1260.0
2016-12-11,1260.0
2016-12-12,1200.0
2016-12-13,1200.0
2016-12-14,1200.0
2016-12-15,1200.0
2016-12-16,1120.0
2016-12-17,1066.6666666666665
2016-12-18,1028.5714285714287
2016-12-19,971.4285714285713
2016-12-20,914.2857142857142
2016-12-21,857.1428571428571
2016-12-22,800.0
2016-12-23,800.0
2016-12-24,800.0
2016-12-25,800.0
2016-12-26,800.0
2016-12-27,800.0
2016-12-28,800.0
2016-12-29,800.0
2016-12-30,800.0
2016-12-31,800.0
2017-01-01,800.0
2017-01-02,800.0
2017-01-03,760.0
2017-01-04,720.0
2017-01-05,680.0
2017-01-06,640.0
2017-01-07,633.3333333333333
2017-01-08,628.5714285714286
2017-01-09,600.0
2017-01-10,600.0
2017-01-11,600.0
2017-01-12,628.5714285714286
2017-01-13,685.7142857142857
2017-01-14,742.8571428571429
2017-01-15,800.0
2017-01-16,857.1428571428571
2017-01-17,914.2857142857142
2017-01-18,971.4285714285713
2017-01-19,1000.0
2017-01-20,1000.0
2017-01-21,1000.0
2017-01-22,1000.0
2017-01-23,1000.0
2017-01-24,1000.0
2017-01-25,1000.0
2017-01-26,1000.0
2017-01-27,960.0
2017-01-28,919.9999999999999
2017-01-29,880.0000000000001
2017-01-30,840.0
2017-01-31,760.0
2017-02-01,733.3333333333333
2017-02-02,714.2857142857143
2017-02-03,685.7142857142857
2017-02-04,657.1428571428571
2017-02-05,628.5714285714286
2017-02-06,600.0
2017-02-07,600.0
2017-02-08,600.0
2017-02-09,600.0
2017-02-10,600.0
2017-02-11,600.0
2017-02-12,600.0
2017-02-13,600.0
2017-02-14,600.0
2017-02-15,600.0
2017-02-16,600.0
2017-02-17,600.0
2017-02-18,600.0
2017-02-19,600.0
2017-02-20,600.0
2017-02-21,600.0
2017-02-22,600.0
2017-02-23,600.0
2017-02-24,600.0
2017-02-25,600.0
2017-02-26,600.0
2017-02-27,600.0
2017-02-28,600.0
2017-03-01,600.0
2017-03-02,600.0
2017-03-03,585.7142857142857
2017-03-04,571.4285714285714
2017-03-05,557.1428571428571
2017-03-06,542.8571428571429
2017-03-07,528.5714285714286
2017-03-08,514.2857142857143
2017-03-09,500.0
2017-03-10,500.0
2017-03-11,514.2857142857143
2017-03-12,528.5714285714286
2017-03-13,542.8571428571429
2017-03-14,557.1428571428571
2017-03-15,571.4285714285714
2017-03-16,585.7142857142857
2017-03-17,600.0
2017-03-18,600.0
2017-03-19,600.0
2017-03-20,600.0
2017-03-21,600.0
2017-03-22,600.0
2017-03-23,600.0
2017-03-24,600.0
2017-03-25,600.0
2017-03-26,600.0
2017-03-27,600.0
2017-03-28,600.0
2017-03-29,600.0
2017-03-30,600.0
2017-03-31,600.0
2017-04-01,600.0
2017-04-02,600.0
2017-04-03,600.0
2017-04-04,600.0
2017-04-05,600.0
2017-04-06,600.0
2017-04-07,600.0
2017-04-08,600.0
2017-04-09,600.0
2017-04-10,600.0
2017-04-11,600.0
2017-04-12,600.0
2017-04-13,600.0
2017-04-14,600.0
2017-04-15,600.0
2017-04-16,600.0
2017-04-17,600.0
2017-04-18,600.0
2017-04-19,600.0
2017-04-20,600.0
2017-04-21,600.0
2017-04-22,600.0
2017-04-23,600.0
2017-04-24,600.0
2017-04-25,633.3333333333333
2017-04-26,666.6666666666667
2017-04-27,700.0
2017-04-28,733.3333333333333
2017-04-29,766.6666666666667
2017-04-30,771.4285714285714
2017-05-01,800.0
2017-05-02,800.0
2017-05-03,800.0
2017-05-04,800.0
2017-05-05,800.0
2017-05-06,800.0
2017-05-07,800.0
2017-05-08,800.0
2017-05-09,816.6666666666666
2017-05-10,833.3333333333334
2017-05-11,850.0
2017-05-12,866.6666666666666
2017-05-13,883.3333333333334
2017-05-14,900.0
2017-05-15,900.0
2017-05-16,900.0
2017-05-17,900.0
2017-05-18,900.0
2017-05-19,900.0
2017-05-20,900.0
2017-05-21,900.0
2017-05-22,900.0
2017-05-23,900.0
2017-05-24,900.0
2017-05-25,900.0
2017-05-26,900.0
2017-05-27,900.0
2017-05-28,900.0
2017-05-29,900.0
2017-05-30,900.0
2017-05-31,900.0
2017-06-01,900.0
2017-06-02,900.0
2017-06-03,900.0
2017-06-04,900.0
2017-06-05,900.0
2017-06-06,900.0
2017-06-07,900.0
2017-06-08,900.0
2017-06-09,900.0
2017-06-10,900.0
2017-06-11,900.0
2017-06-12,900.0
2017-06-13,900.0
2017-06-14,900.0
2017-06-15,900.0
2017-06-16,900.0
2017-06-17,900.0
2017-06-18,900.0
2017-06-19,900.0
2017-06-20,900.0
2017-06-21,900.0
2017-06-22,900.0
2017-06-23,928.5714285714287
2017-06-24,957.1428571428571
2017-06-25,985.7142857142858
2017-06-26,1014.2857142857142
2017-06-27,1028.5714285714287
2017-06-28,1042.857142857143
2017-06-29,1057.142857142857
2017-06-30,1071.4285714285713
2017-07-01,1085.7142857142858
2017-07-02,1100.0
2017-07-03,1114.2857142857142
2017-07-04,1142.857142857143
2017-07-05,1171.4285714285713
2017-07-06,1200.0
2017-07-07,1171.4285714285713
2017-07-08,1171.4285714285713
2017-07-09,1171.4285714285713
2017-07-10,1171.4285714285713
2017-07-11,1200.0
2017-07-12,1228.5714285714287
2017-07-13,1171.4285714285713
2017-07-14,1142.857142857143
2017-07-15,1085.7142857142858
2017-07-16,1028.5714285714287
2017-07-17,971.4285714285713
2017-07-18,914.2857142857142
2017-07-19,857.1428571428571
2017-07-20,885.7142857142858
2017-07-21,914.2857142857142
2017-07-22,942.8571428571429
2017-07-23,971.4285714285713
2017-07-24,1000.0
2017-07-25,1000.0
2017-07-26,1000.0
2017-07-27,1000.0
2017-07-28,1028.5714285714287
2017-07-29,1057.142857142857
2017-07-30,1085.7142857142858
2017-07-31,1100.0
2017-08-01,1120.0
2017-08-02,1120.0
2017-08-03,1120.0
2017-08-04,1080.0
2017-08-05,1040.0
2017-08-06,1000.0
2017-08-07,1000.0
2017-08-08,1000.0
2017-08-09,1000.0
2017-08-10,1000.0
2017-08-11,1000.0
2017-08-12,1000.0
2017-08-13,1000.0
2017-08-14,1000.0
2017-08-15,1000.0
2017-08-16,1000.0
2017-08-17,1000.0
2017-08-18,1000.0
2017-08-19,1000.0
2017-08-20,1000.0
2017-08-21,1000.0
2017-08-22,1000.0
2017-08-23,1000.0
2017-08-24,1000.0
2017-08-25,1000.0
2017-08-26,1000.0
2017-08-27,1000.0
2017-08-28,1028.5714285714287
2017-08-29,1033.3333333333335
2017-08-30,1033.3333333333335
2017-08-31,1000.0
2017-09-01,966.6666666666666
2017-09-02,933.3333333333334
2017-09-03,900.0
2017-09-04,840.0
2017-09-05,866.6666666666666
2017-09-06,866.6666666666666
2017-09-07,900.0
2017-09-08,933.3333333333334
2017-09-09,966.6666666666666
2017-09-10,1000.0
2017-09-11,1000.0
2017-09-12,1000.0
2017-09-13,1000.0
2017-09-14,1000.0
2017-09-15,1000.0
2017-09-16,1000.0
2017-09-17,1000.0
2017-09-18,1000.0
2017-09-19,1000.0
2017-09-20,1000.0
2017-09-21,1028.5714285714287
2017-09-22,1014.2857142857142
2017-09-23,1000.0
2017-09-24,985.7142857142858
2017-09-25,971.4285714285713
2017-09-26,957.1428571428571
2017-09-27,942.8571428571429
2017-09-28,900.0
2017-09-29,914.2857142857142
2017-09-30,928.5714285714287
2017-10-01,942.8571428571429
2017-10-02,957.1428571428571
2017-10-03,1000.0
2017-10-04,1042.857142857143
2017-10-05,1085.7142857142858
2017-10-06,1085.7142857142858
2017-10-07,1085.7142857142858
2017-10-08,1085.7142857142858
2017-10-09,1100.0
2017-10-10,1080.0
2017-10-11,1050.0
2017-10-12,1000.0
2017-10-13,1000.0
2017-10-14,1052.0
2017-10-15,1176.0
2017-10-16,1323.9999999999998
2017-10-17,1412.0
2017-10-18,1500.0
2017-10-19,1500.0
2017-10-20,1500.0
2017-10-21,1500.0
2017-10-22,1500.0
2017-10-23,1500.0
2017-10-24,1360.0
2017-10-25,1260.0
2017-10-26,1216.6666666666665
2017-10-27,1133.3333333333335
2017-10-28,1016.6666666666666
2017-10-29,919.9999999999999
2017-10-30,900.0
2017-10-31,900.0
2017-11-01,866.6666666666666
2017-11-02,833.3333333333334
2017-11-03,800.0
2017-11-04,833.3333333333334
2017-11-05,857.1428571428571
2017-11-06,866.6666666666666
2017-11-07,933.3333333333334
2017-11-08,1000.0
2017-11-09,1066.6666666666665
2017-11-10,1133.3333333333335
2017-11-11,1216.6666666666665
2017-11-12,1300.0
2017-11-13,1328.5714285714287
2017-11-14,1371.4285714285713
2017-11-15,1414.2857142857142
2017-11-16,1457.142857142857
2017-11-17,1500.0
2017-11-18,1500.0
2017-11-19,1500.0
2017-11-20,1500.0
2017-11-21,1571.4285714285713
2017-11-22,1642.8571428571427
2017-11-23,1666.6666666666667
2017-11-24,1750.0
2017-11-25,1833.3333333333333
2017-11-26,1916.6666666666667
2017-11-27,2000.0
2017-11-28,2000.0
2017-11-29,2000.0
2017-11-30,2000.0
2017-12-01,2000.0
2017-12-02,2000.0
2017-12-03,2000.0
2017-12-04,2000.0
2017-12-05,1916.6666666666667
2017-12-06,1833.3333333333333
2017-12-07,1750.0
2017-12-08,1666.6666666666667
2017-12-09,1583.3333333333335
2017-12-10,1500.0
2017-12-11,1500.0
2017-12-12,1500.0
2017-12-13,1500.0
2017-12-14,1500.0
2017-12-15,1500.0
2017-12-16,1500.0
2017-12-17,1500.0
2017-12-18,1500.0
2017-12-19,1500.0
2017-12-20,1457.142857142857
2017-12-21,1414.2857142857142
2017-12-22,1371.4285714285713
2017-12-23,1328.5714285714287
2017-12-24,1285.7142857142858
2017-12-25,1242.857142857143
2017-12-26,1200.0
2017-12-27,1200.0
2017-12-28,1200.0
2017-12-29,1200.0
2017-12-30,1100.0
2017-12-31,1000.0
2018-01-01,900.0
2018-01-02,900.0
2018-01-03,800.0
2018-01-04,700.0
2018-01-05,600.0
2018-01-06,600.0
2018-01-07,600.0
2018-01-08,600.0
2018-01-09,600.0
2018-01-10,600.0
2018-01-11,600.0
2018-01-12,703.7037037037036
2018-01-13,896.2962962962962
2018-01-14,1000.0
2018-01-15,1000.0
2018-01-16,1000.0
2018-01-17,1000.0
2018-01-18,1000.0
2018-01-19,1000.0
2018-01-20,1000.0
2018-01-21,1000.0
2018-01-22,1000.0
2018-01-23,1000.0
2018-01-24,1000.0
2018-01-25,1000.0
2018-01-26,1000.0
2018-01-27,1000.0
2018-01-28,1000.0
2018-01-29,1000.0
2018-01-30,1000.0
2018-01-31,1000.0
2018-02-01,968.75
2018-02-02,900.0
2018-02-03,831.25
2018-02-04,800.0
2018-02-05,800.0
2018-02-06,800.0
2018-02-07,800.0
2018-02-08,800.0
2018-02-09,800.0
2018-02-10,800.0
2018-02-11,800.0
2018-02-12,800.0
2018-02-13,800.0
2018-02-14,800.0
2018-02-15,800.0
2018-02-16,800.0
2018-02-17,800.0
2018-02-18,800.0
2018-02-19,800.0
2018-02-20,800.0
2018-02-21,800.0
2018-02-22,800.0
2018-02-23,800.0
2018-02-24,800.0
2018-02-25,800.0
2018-02-26,800.0
2018-02-27,800.0
2018-02-28,800.0
2018-03-01,800.0
2018-03-02,800.0
2018-03-03,780.0
2018-03-04,775.0
2018-03-05,750.0
2018-03-06,725.0
2018-03-07,700.0
2018-03-08,700.0
2018-03-09,700.0
2018-03-10,700.0
2018-03-11,700.0
2018-03-12,700.0
2018-03-13,700.0
2018-03-14,700.0
2018-03-15,700.0
2018-03-16,700.0
2018-03-17,683.3333333333333
2018-03-18,666.6666666666667
2018-03-19,650.0
2018-03-20,633.3333333333333
2018-03-21,616.6666666666667
2018-03-22,600.0
2018-03-23,600.0
2018-03-24,600.0
2018-03-25,600.0
2018-03-26,666.6666666666667
2018-03-27,733.3333333333333
2018-03-28,800.0
2018-03-29,800.0
2018-03-30,800.0
2018-03-31,800.0
2018-04-01,800.0
2018-04-02,800.0
2018-04-03,800.0
2018-04-04,800.0
2018-04-05,800.0
2018-04-06,800.0
2018-04-07,800.0
2018-04-08,811.7888029130633
2018-04-09,844.6062812926717
2018-04-10,894.6290395994538
2018-04-11,955.1661356395083
2018-04-12,1015.703231679563
2018-04-13,1076.2403277196177
2018-04-14,1136.7774237596723
2018-04-15,1197.314519799727
2018-04-16,1257.8516158397815
2018-04-17,1318.388711879836
2018-04-18,1378.9258079198908
2018-04-19,1439.4629039599454
2018-04-20,1500.0
2018-04-21,1500.0
2018-04-22,1500.0
2018-04-23,1500.0
2018-04-24,1500.0
2018-04-25,1500.0
2018-04-26,1500.0
2018-04-27,1500.0
2018-04-28,1500.0
2018-04-29,1500.0
2018-04-30,1500.0
2018-05-01,1500.0
2018-05-02,1500.0
2018-05-03,1500.0
2018-05-04,1375.0
2018-05-05,1333.3333333333335
2018-05-06,1250.0
2018-05-07,1100.0
2018-05-08,1133.3333333333335
2018-05-09,1133.3333333333335
2018-05-10,1125.0
2018-05-11,1150.0
2018-05-12,1160.0
2018-05-13,1166.6666666666665
2018-05-14,1166.6666666666665
2018-05-15,1166.6666666666665
2018-05-16,1171.4285714285713
2018-05-17,1185.7142857142858
2018-05-18,1242.857142857143
2018-05-19,1285.7142857142858
2018-05-20,1328.5714285714287
2018-05-21,1371.4285714285713
2018-05-22,1414.2857142857142
2018-05-23,1457.142857142857
2018-05-24,1500.0
2018-05-25,1500.0
2018-05-26,1500.0
2018-05-27,1500.0
2018-05-28,1500.0
2018-05-29,1500.0
2018-05-30,1527.6967930029155
2018-05-31,1599.1253644314866
2018-06-01,1696.7930029154516
2018-06-02,1772.5947521865887
2018-06-03,1848.396501457726
2018-06-04,1924.1982507288628
2018-06-05,2000.0
2018-06-06,2000.0
2018-06-07,2000.0
2018-06-08,2000.0
2018-06-09,2000.0
2018-06-10,2000.0
2018-06-11,1980.0
2018-06-12,1960.0000000000002
2018-06-13,1880.0
2018-06-14,1800.0
2018-06-15,1750.0
2018-06-16,1750.0
2018-06-17,1750.0
2018-06-18,1700.0
2018-06-19,1600.0
2018-06-20,1512.037037037037
2018-06-21,1421.6296296296298
2018-06-22,1337.0
2018-06-23,1291.3333333333333
2018-06-24,1245.6666666666667
2018-06-25,1200.0
2018-06-26,1200.0
2018-06-27,1200.0
2018-06-28,1200.0
2018-06-29,1200.0
2018-06-30,1200.0
2018-07-01,1200.0
2018-07-02,1340.0
2018-07-03,1480.0
2018-07-04,1620.0
2018-07-05,1760.0000000000002
2018-07-06,1900.0
2018-07-07,1900.0
2018-07-08,1900.0
2018-07-09,1900.0
2018-07-10,1875.0
2018-07-11,1850.0
2018-07-12,1825.0
2018-07-13,1800.0
2018-07-14,1800.0
2018-07-15,1800.0
2018-07-16,1757.1428571428573
2018-07-17,1714.2857142857142
2018-07-18,1671.4285714285716
2018-07-19,1628.5714285714284
2018-07-20,1600.0
2018-07-21,1633.3333333333333
2018-07-22,1666.6666666666667
2018-07-23,1750.0
2018-07-24,1833.3333333333333
2018-07-25,1916.6666666666667
2018-07-26,2000.0
2018-07-27,2000.0
2018-07-28,2000.0
2018-07-29,2000.0
2018-07-30,2000.0
2018-07-31,2000.0
2018-08-01,2000.0
2018-08-02,2000.0
2018-08-03,2000.0
2018-08-04,2000.0
2018-08-05,2000.0
2018-08-06,2000.0
2018-08-07,2000.0
2018-08-08,2000.0
2018-08-09,2000.0
2018-08-10,2000.0
2018-08-11,2000.0
2018-08-12,2000.0
2018-08-13,2000.0
2018-08-14,2000.0
2018-08-15,2000.0
2018-08-16,2000.0
2018-08-17,2000.0
2018-08-18,2000.0
2018-08-19,2000.0
2018-08-20,2000.0
2018-08-21,2000.0
2018-08-22,2000.0
2018-08-23,2000.0
2018-08-24,2000.0
2018-08-25,2000.0
2018-08-26,2000.0
2018-08-27,2000.0
2018-08-28,2000.0
2018-08-29,2000.0
2018-08-30,2000.0
2018-08-31,2000.0
2018-09-01,2000.0
2018-09-02,2000.0
2018-09-03,2000.0
2018-09-04,2000.0
2018-09-05,2000.0
2018-09-06,2000.0
2018-09-07,2000.0
2018-09-08,2000.0
2018-09-09,2000.0
2018-09-10,2000.0
2018-09-11,2000.0
2018-09-12,2000.0
2018-09-13,2000.0
2018-09-14,2000.0
2018-09-15,1971.4285714285716
2018-09-16,1942.8571428571427
2018-09-17,1900.0
2018-09-18,1857.1428571428573
2018-09-19,1814.2857142857142
2018-09-20,1771.4285714285716
2018-09-21,1728.5714285714284
2018-09-22,1714.2857142857142
2018-09-23,1700.0
2018-09-24,1700.0
2018-09-25,1700.0
2018-09-26,1700.0
2018-09-27,1700.0
2018-09-28,1700.0
2018-09-29,1700.0
2018-09-30,1700.0
2018-10-01,1700.0
2018-10-02,1700.0
2018-10-03,1700.0
2018-10-04,1700.0
2018-10-05,1700.0
2018-10-06,1700.0
2018-10-07,1700.0
2018-10-08,1700.0
2018-10-09,1700.0
2018-10-10,1700.0
2018-10-11,1700.0
2018-10-12,1700.0
2018-10-13,1700.0
2018-10-14,1700.0
2018-10-15,1700.0
2018-10-16,1700.0
2018-10-17,1700.0
2018-10-18,1700.0
2018-10-19,1700.0
2018-10-20,1700.0
2018-10-21,1700.0
2018-10-22,1700.0
2018-10-23,1700.0
2018-10-24,1700.0
2018-10-25,1700.0
2018-10-26,1700.0
2018-10-27,1700.0
2018-10-28,1700.0
2018-10-29,1700.0
2018-10-30,1700.0
2018-10-31,1700.0
2018-11-01,1700.0
2018-11-02,1700.0
2018-11-03,1700.0
2018-11-04,1700.0
2018-11-05,1700.0
2018-11-06,1700.0
2018-11-07,1700.0
2018-11-08,1657.1428571428573
2018-11-09,1614.2857142857142
2018-11-10,1571.4285714285713
2018-11-11,1528.5714285714287
2018-11-12,1485.7142857142858
2018-11-13,1442.857142857143
2018-11-14,1400.0
2018-11-15,1400.0
2018-11-16,1400.0
2018-11-17,1400.0
2018-11-18,1400.0
2018-11-19,1400.0
2018-11-20,1400.0
2018-11-21,1400.0
2018-11-22,1400.0
2018-11-23,1400.0
2018-11-24,1400.0
2018-11-25,1400.0
2018-11-26,1400.0
2018-11-27,1400.0
2018-11-28,1400.0
2018-11-29,1400.0
2018-11-30,1400.0
2018-12-01,1400.0
2018-12-02,1400.0
2018-12-03,1400.0
2018-12-04,1400.0
2018-12-05,1400.0
2018-12-06,1400.0
2018-12-07,1266.6666666666665
2018-12-08,1133.3333333333335
2018-12-09,1000.0
2018-12-10,1000.0
2018-12-11,1000.0
2018-12-12,1000.0
2018-12-13,1000.0
2018-12-14,1000.0
2018-12-15,1000.0
2018-12-16,1000.0
2018-12-17,1000.0
2018-12-18,1000.0
2018-12-19,1000.0
2018-12-20,1000.0
2018-12-21,1000.0
2018-12-22,1000.0
2018-12-23,1000.0
2018-12-24,1000.0
2018-12-25,1000.0
2018-12-26,1000.0
2018-12-27,1000.0
2018-12-28,1000.0
2018-12-29,1000.0
2018-12-30,1000.0
2018-12-31,1000.0
2019-01-01,1000.0
2019-01-02,1000.0
2019-01-03,1000.0
2019-01-04,1000.0
2019-01-05,1000.0
2019-01-06,1000.0
2019-01-07,1000.0
2019-01-08,1000.0
2019-01-09,1000.0
2019-01-10,1000.0
2019-01-11,1000.0
2019-01-12,1000.0
2019-01-13,1000.0
2019-01-14,1000.0
2019-01-15,1000.0
2019-01-16,1000.0
2019-01-17,1000.0
2019-01-18,1000.0
2019-01-19,1000.0
2019-01-20,1000.0
2019-01-21,1000.0
2019-01-22,1000.0
2019-01-23,1000.0
2019-01-24,1000.0
2019-01-25,1000.0
2019-01-26,1000.0
2019-01-27,1000.0
2019-01-28,1000.0
2019-01-29,1000.0
2019-01-30,1000.0
2019-01-31,1000.0
2019-02-01,1000.0
2019-02-02,1000.0
2019-02-03,1000.0
2019-02-04,1000.0
2019-02-05,1000.0
2019-02-06,1000.0
2019-02-07,1000.0
2019-02-08,1000.0
2019-02-09,1000.0
2019-02-10,1000.0
2019-02-11,1000.0
2019-02-12,1000.0
2019-02-13,1000.0
2019-02-14,1000.0
2019-02-15,1000.0
2019-02-16,1000.0
2019-02-17,1000.0
2019-02-18,1000.0
2019-02-19,1000.0
2019-02-20,1000.0
2019-02-21,1000.0
2019-02-22,1000.0
2019-02-23,1000.0
2019-02-24,1000.0
2019-02-25,1000.0
2019-02-26,1000.0
2019-02-27,1000.0
2019-02-28,1000.0
2019-03-01,1000.0
2019-03-02,1000.0
2019-03-03,1000.0
2019-03-04,1000.0
2019-03-05,1000.0
2019-03-06,1000.0
2019-03-07,1000.0
2019-03-08,1000.0
2019-03-09,1000.0
2019-03-10,1000.0
2019-03-11,1000.0
2019-03-12,1000.0
2019-03-13,1000.0
2019-03-14,1000.0
2019-03-15,1000.0
2019-03-16,1000.0
2019-03-17,1000.0
2019-03-18,1000.0
2019-03-19,1000.0
2019-03-20,1000.0
2019-03-21,1000.0
2019-03-22,1000.0
2019-03-23,1000.0
2019-03-24,1000.0
2019-03-25,1000.0
2019-03-26,1000.0
2019-03-27,1000.0
2019-03-28,1000.0
2019-03-29,1000.0
2019-03-30,1000.0
2019-03-31,1000.0
2019-04-01,1000.0
2019-04-02,1000.0
2019-04-03,1000.0
2019-04-04,1000.0
2019-04-05,1000.0
2019-04-06,1000.0
2019-04-07,1000.0
2019-04-08,1000.0
2019-04-09,1000.0
2019-04-10,1000.0
2019-04-11,1000.0
2019-04-12,1000.0
2019-04-13,1000.0
2019-04-14,1000.0
2019-04-15,1000.0
2019-04-16,1000.0
2019-04-17,1000.0
2019-04-18,1000.0
2019-04-19,1000.0
2019-04-20,1000.0
2019-04-21,1000.0
2019-04-22,1000.0
2019-04-23,1000.0
2019-04-24,1000.0
2019-04-25,1000.0
2019-04-26,1000.0
2019-04-27,1000.0
2019-04-28,1000.0
2019-04-29,1000.0
2019-04-30,1000.0
2019-05-01,1000.0
2019-05-02,1000.0
2019-05-03,1000.0
2019-05-04,1000.0
2019-05-05,1000.0
2019-05-06,1000.0
2019-05-07,1000.0
2019-05-08,1000.0
2019-05-09,1000.0
2019-05-10,1000.0
2019-05-11,1000.0
2019-05-12,1000.0
2019-05-13,1000.0
2019-05-14,1000.0
2019-05-15,1000.0
2019-05-16,1000.0
2019-05-17,1000.0
2019-05-18,1000.0
2019-05-19,1000.0
2019-05-20,1000.0
2019-05-21,1000.0
2019-05-22,1000.0
2019-05-23,1000.0
2019-05-24,1000.0
2019-05-25,1000.0
2019-05-26,1000.0
2019-05-27,1000.0
2019-05-28,1000.0
2019-05-29,1000.0
2019-05-30,1000.0
2019-05-31,1000.0
2019-06-01,1000.0
2019-06-02,1000.0
2019-06-03,1000.0
2019-06-04,1000.0
2019-06-05,1000.0
2019-06-06,1000.0
2019-06-07,1000.0
2019-06-08,1000.0
2019-06-09,1000.0
2019-06-10,1000.0
2019-06-11,1000.0
2019-06-12,1000.0
2019-06-13,1000.0
2019-06-14,1000.0
2019-06-15,1000.0
2019-06-16,1000.0
2019-06-17,1000.0
2019-06-18,1000.0
2019-06-19,1000.0
2019-06-20,1000.0
2019-06-21,1000.0
2019-06-22,1000.0
2019-06-23,1000.0
2019-06-24,1000.0
2019-06-25,1000.0
2019-06-26,1000.0
2019-06-27,1000.0
2019-06-28,1000.0
2019-06-29,1000.0
2019-06-30,1000.0
2019-07-01,1000.0
2019-07-02,1000.0
2019-07-03,1000.0
2019-07-04,1000.0
2019-07-05,1000.0
2019-07-06,1000.0
2019-07-07,1000.0
2019-07-08,1000.0
2019-07-09,1000.0
2019-07-10,1000.0
2019-07-11,1000.0
2019-07-12,1000.0
2019-07-13,1000.0
2019-07-14,1000.0
2019-07-15,1000.0
2019-07-16,1000.0
2019-07-17,1000.0
2019-07-18,1000.0
2019-07-19,1000.0
2019-07-20,1000.0
2019-07-21,1000.0
2019-07-22,1000.0
2019-07-23,1000.0
2019-07-24,1000.0
2019-07-25,1000.0
2019-07-26,1000.0
2019-07-27,1000.0
2019-07-28,1000.0
2019-07-29,1000.0
2019-07-30,1000.0
2019-07-31,1000.0
2019-08-01,1000.0
2019-08-02,1000.0
2019-08-03,1000.0
2019-08-04,1000.0
2019-08-05,1000.0
2019-08-06,1000.0
2019-08-07,1000.0
2019-08-08,1000.0
2019-08-09,1000.0
2019-08-10,1000.0
2019-08-11,1000.0
2019-08-12,1000.0
2019-08-13,1000.0
2019-08-14,1000.0
2019-08-15,1000.0
2019-08-16,1000.0
2019-08-17,1000.0
2019-08-18,1000.0
2019-08-19,1000.0
2019-08-20,1000.0
2019-08-21,1000.0
2019-08-22,1000.0
2019-08-23,1000.0
2019-08-24,1000.0
2019-08-25,1000.0
2019-08-26,1028.5714285714287
2019-08-27,1057.142857142857
2019-08-28,1085.7142857142858
2019-08-29,1114.2857142857142
2019-08-30,1142.857142857143
2019-08-31,1171.4285714285713
2019-09-01,1200.0
2019-09-02,1200.0
2019-09-03,1200.0
2019-09-04,1200.0
2019-09-05,1200.0
2019-09-06,1200.0
2019-09-07,1200.0
2019-09-08,1200.0
2019-09-09,1200.0
2019-09-10,1200.0
2019-09-11,1200.0
2019-09-12,1200.0
2019-09-13,1200.0
2019-09-14,1200.0
2019-09-15,1200.0
2019-09-16,1200.0
2019-09-17,1200.0
2019-09-18,1200.0
2019-09-19,1200.0
2019-09-20,1200.0
2019-09-21,1200.0
2019-09-22,1200.0
2019-09-23,1214.8148148148148
2019-09-24,1251.8518518518517
2019-09-25,1300.0
2019-09-26,1333.3333333333335
2019-09-27,1366.6666666666665
2019-09-28,1400.0
2019-09-29,1366.6666666666665
2019-09-30,1350.0
2019-10-01,1275.0
2019-10-02,1260.0
2019-10-03,1216.6666666666665
2019-10-04,1185.7142857142858
2019-10-05,1166.6666666666665
2019-10-06,1116.6666666666665
2019-10-07,1066.6666666666665
2019-10-08,1033.3333333333335
2019-10-09,1000.0
2019-10-10,1000.0
2019-10-11,1000.0
2019-10-12,1000.0
2019-10-13,1000.0
2019-10-14,1000.0
2019-10-15,1028.5714285714287
2019-10-16,1057.142857142857
2019-10-17,1085.7142857142858
2019-10-18,1142.857142857143
2019-10-19,1200.0
2019-10-20,1257.142857142857
2019-10-21,1314.2857142857142
2019-10-22,1328.5714285714287
2019-10-23,1342.857142857143
2019-10-24,1357.142857142857
2019-10-25,1342.857142857143
2019-10-26,1328.5714285714287
2019-10-27,1314.2857142857142
2019-10-28,1328.5714285714287
2019-10-29,1357.142857142857
2019-10-30,1357.142857142857
2019-10-31,1385.7142857142858
2019-11-01,1385.7142857142858
2019-11-02,1385.7142857142858
2019-11-03,1400.0
2019-11-04,1383.3333333333335
2019-11-05,1383.3333333333335
2019-11-06,1416.6666666666665
2019-11-07,1416.6666666666665
2019-11-08,1450.0
2019-11-09,1483.3333333333335
2019-11-10,1485.7142857142858
2019-11-11,1500.0
2019-11-12,1500.0
2019-11-13,1500.0
2019-11-14,1500.0
2019-11-15,1500.0
2019-11-16,1500.0
2019-11-17,1500.0
2019-11-18,1500.0
2019-11-19,1500.0
2019-11-20,1500.0
2019-11-21,1500.0
2019-11-22,1500.0
2019-11-23,1500.0
2019-11-24,1500.0
2019-11-25,1500.0
2019-11-26,1500.0
2019-11-27,1500.0
2019-11-28,1500.0
2019-11-29,1500.0
2019-11-30,1500.0
2019-12-01,1500.0
2019-12-02,1471.4285714285713
2019-12-03,1457.142857142857
2019-12-04,1442.857142857143
2019-12-05,1428.5714285714287
2019-12-06,1414.2857142857142
2019-12-07,1400.0
2019-12-08,1385.7142857142858
2019-12-09,1457.142857142857
2019-12-10,1542.857142857143
2019-12-11,1628.5714285714284
2019-12-12,1714.2857142857142
2019-12-13,1771.4285714285716
2019-12-14,1828.5714285714284
2019-12-15,1885.7142857142858
2019-12-16,1885.7142857142858
2019-12-17,1857.1428571428573
2019-12-18,1857.1428571428573
2019-12-19,1857.1428571428573
2019-12-20,1885.7142857142858
2019-12-21,1914.2857142857142
2019-12-22,1942.8571428571427
2019-12-23,1942.8571428571427
2019-12-24,1971.4285714285716
2019-12-25,1971.4285714285716
2019-12-26,1942.8571428571427
2019-12-27,1885.7142857142858
2019-12-28,1828.5714285714284
2019-12-29,1771.4285714285716
2019-12-30,1742.8571428571427
2019-12-31,1714.2857142857142
2020-01-01,1685.7142857142858
2020-01-02,1685.7142857142858
2020-01-03,1714.2857142857142
2020-01-04,1742.8571428571427
2020-01-05,1771.4285714285716
2020-01-06,1800.0
2020-01-07,1800.0
2020-01-08,1800.0
2020-01-09,1828.5714285714284
2020-01-10,1857.1428571428573
2020-01-11,1885.7142857142858
2020-01-12,1914.2857142857142
2020-01-13,1942.8571428571427
2020-01-14,1971.4285714285716
2020-01-15,2000.0
2020-01-16,2000.0
2020-01-17,2000.0
2020-01-18,2000.0
2020-01-19,2000.0
2020-01-20,2000.0
2020-01-21,2000.0
2020-01-22,2000.0
2020-01-23,1971.4285714285716
2020-01-24,1942.8571428571427
2020-01-25,1914.2857142857142
2020-01-26,1885.7142857142858
2020-01-27,1814.2857142857142
2020-01-28,1742.8571428571427
2020-01-29,1671.4285714285716
2020-01-30,1628.5714285714284
2020-01-31,1585.7142857142858
2020-02-01,1542.857142857143
2020-02-02,1500.0
2020-02-03,1500.0
2020-02-04,1500.0
2020-02-05,1500.0
2020-02-06,1500.0
2020-02-07,1500.0
2020-02-08,1500.0
2020-02-09,1500.0
2020-02-10,1560.0
2020-02-11,1620.0
2020-02-12,1680.0
2020-02-13,1739.9999999999998
2020-02-14,1800.0
2020-02-15,1800.0
2020-02-16,1800.0
2020-02-17,1800.0
2020-02-18,1800.0
2020-02-19,1800.0
2020-02-20,1800.0
2020-02-21,1800.0
2020-02-22,1800.0
2020-02-23,1800.0
2020-02-24,1800.0
2020-02-25,1800.0
2020-02-26,1800.0
2020-02-27,1800.0
2020-02-28,1800.0
2020-02-29,1800.0
2020-03-01,1800.0
2020-03-02,1800.0
2020-03-03,1800.0
2020-03-04,1800.0
2020-03-05,1800.0
2020-03-06,1771.4285714285716
2020-03-07,1742.8571428571427
2020-03-08,1714.2857142857142
2020-03-09,1685.7142857142858
2020-03-10,1685.7142857142858
2020-03-11,1685.7142857142858
2020-03-12,1685.7142857142858
2020-03-13,1714.2857142857142
2020-03-14,1742.8571428571427
2020-03-15,1771.4285714285716
2020-03-16,1800.0
2020-03-17,1800.0
2020-03-18,1800.0
2020-03-19,1800.0
2020-03-20,1800.0
2020-03-21,1800.0
2020-03-22,1800.0
2020-03-23,1800.0
2020-03-24,1800.0
2020-03-25,1800.0
2020-03-26,1828.5714285714284
2020-03-27,1857.1428571428573
2020-03-28,1885.7142857142858
2020-03-29,1914.2857142857142
2020-03-30,1942.8571428571427
2020-03-31,1971.4285714285716
2020-04-01,2000.0
2020-04-02,2000.0
2020-04-03,2000.0
2020-04-04,2000.0
2020-04-05,2000.0
2020-04-06,2000.0
2020-04-07,2000.0
2020-04-08,2000.0
2020-04-09,2000.0
2020-04-10,2000.0
2020-04-11,2000.0
2020-04-12,2000.0
2020-04-13,2000.0
2020-04-14,2000.0
2020-04-15,2000.0
2020-04-16,2000.0
2020-04-17,2000.0
2020-04-18,2000.0
2020-04-19,2000.0
2020-04-20,2000.0
2020-04-21,2000.0
2020-04-22,2000.0
2020-04-23,2000.0
2020-04-24,2000.0
2020-04-25,2000.0
2020-04-26,2000.0
2020-04-27,2000.0
2020-04-28,2000.0
2020-04-29,2000.0
2020-04-30,2000.0
2020-05-01,2000.0
2020-05-02,2000.0
2020-05-03,2000.0
2020-05-04,2000.0
2020-05-05,2000.0
2020-05-06,2000.0
2020-05-07,2000.0
2020-05-08,2000.0
2020-05-09,2000.0
2020-05-10,2000.0
2020-05-11,2000.0
2020-05-12,2000.0
2020-05-13,2000.0
2020-05-14,2000.0
2020-05-15,2000.0
2020-05-16,2000.0
2020-05-17,2000.0
2020-05-18,2000.0
2020-05-19,2000.0
2020-05-20,2000.0
2020-05-21,2000.0
2020-05-22,2000.0
2020-05-23,2000.0
2020-05-24,2000.0
2020-05-25,2000.0
2020-05-26,2000.0
2020-05-27,2000.0
2020-05-28,2000.0
2020-05-29,2000.0
2020-05-30,2000.0
2020-05-31,2000.0
2020-06-01,2000.0
2020-06-02,2000.0
2020-06-03,2000.0
2020-06-04,2000.0
2020-06-05,2000.0
2020-06-06,2000.0
2020-06-07,2000.0
2020-06-08,2000.0
2020-06-09,2000.0
2020-06-10,2000.0
2020-06-11,2000.0
2020-06-12,2000.0
2020-06-13,2000.0
2020-06-14,2000.0
2020-06-15,2000.0
2020-06-16,2000.0
2020-06-17,2000.0
2020-06-18,2028.5714285714284
2020-06-19,2057.1428571428573
2020-06-20,2085.714285714286
2020-06-21,2114.285714285714
2020-06-22,2142.8571428571427
2020-06-23,2171.4285714285716
2020-06-24,2200.0
2020-06-25,2200.0
2020-06-26,2200.0
2020-06-27,2200.0
2020-06-28,2200.0
2020-06-29,2200.0
2020-06-30,2200.0
2020-07-01,2200.0
2020-07-02,2200.0
2020-07-03,2200.0
2020-07-04,2214.285714285714
2020-07-05,2228.5714285714284
2020-07-06,2271.4285714285716
2020-07-07,2314.285714285714
2020-07-08,2357.1428571428573
2020-07-09,2400.0
2020-07-10,2442.8571428571427
2020-07-11,2471.4285714285716
2020-07-12,2500.0
2020-07-13,2500.0
2020-07-14,2528.5714285714284
2020-07-15,2557.1428571428573
2020-07-16,2628.5714285714284
2020-07-17,2700.0
2020-07-18,2771.4285714285716
2020-07-19,2842.8571428571427
2020-07-20,2914.285714285714
2020-07-21,2957.1428571428573
2020-07-22,3000.0
2020-07-23,3000.0
2020-07-24,3000.0
2020-07-25,3000.0
2020-07-26,3000.0
2020-07-27,3000.0
2020-07-28,3000.0
2020-07-29,3000.0
2020-07-30,3000.0
2020-07-31,3000.0
2020-08-01,3000.0
2020-08-02,3000.0
2020-08-03,3000.0
2020-08-04,3000.0
2020-08-05,3000.0
2020-08-06,3000.0
2020-08-07,3000.0
2020-08-08,3000.0
2020-08-09,3000.0
2020-08-10,3000.0
2020-08-11,3000.0
2020-08-12,3000.0
2020-08-13,3000.0
2020-08-14,3000.0
2020-08-15,3000.0
2020-08-16,3000.0
2020-08-17,3000.0
2020-08-18,3000.0
2020-08-19,3000.0
2020-08-20,3000.0
2020-08-21,3000.0
2020-08-22,3000.0
2020-08-23,3000.0
2020-08-24,3000.0
2020-08-25,3000.0
2020-08-26,3000.0
2020-08-27,3000.0
2020-08-28,3000.0
2020-08-29,3000.0
2020-08-30,3000.0
2020-08-31,3000.0
>>>>>>> 6ac9248b3ef33a88bcb4b748e11d3743f40f9979
