<<<<<<< HEAD
version https://git-lfs.github.com/spec/v1
oid sha256:d75dee7ba68177fb8190bae39c608e21ddbc11074365f6b681d2615571e8d375
size 43110
=======
DATE,PRICE
2016-01-01,3200.0
2016-01-02,3200.0
2016-01-03,3200.0
2016-01-04,3466.6666666666665
2016-01-05,3662.5
2016-01-06,3770.0
2016-01-07,3825.0
2016-01-08,4041.6666666666665
2016-01-09,4130.0
2016-01-10,4130.0
2016-01-11,3790.0
2016-01-12,3400.0
2016-01-13,3120.0
2016-01-14,2760.0
2016-01-15,2425.0
2016-01-16,2500.0
2016-01-17,2500.0
2016-01-18,2440.0
2016-01-19,2380.0
2016-01-20,2140.0
2016-01-21,1940.0
2016-01-22,1816.6666666666667
2016-01-23,1558.3333333333333
2016-01-24,1558.3333333333333
2016-01-25,1358.3333333333333
2016-01-26,1230.0
2016-01-27,1137.5
2016-01-28,1083.3333333333333
2016-01-29,1025.0
2016-01-30,970.6361837002166
2016-01-31,913.1001417605049
2016-02-01,856.5965442533501
2016-02-02,823.6974081900125
2016-02-03,790.7982721266751
2016-02-04,757.8991360633376
2016-02-05,725.0
2016-02-06,725.0
2016-02-07,725.0
2016-02-08,1125.0
2016-02-09,966.6666666666666
2016-02-10,875.0
2016-02-11,875.0
2016-02-12,912.5
2016-02-13,912.5
2016-02-14,912.5
2016-02-15,612.5
2016-02-16,575.0
2016-02-17,575.0
2016-02-18,560.0
2016-02-19,480.0
2016-02-20,466.6666666666667
2016-02-21,466.6666666666667
2016-02-22,500.0
2016-02-23,500.0
2016-02-24,483.3333333333333
2016-02-25,466.6666666666667
2016-02-26,466.6666666666667
2016-02-27,475.0
2016-02-28,475.0
2016-02-29,441.6666666666667
2016-03-01,425.0
2016-03-02,391.6666666666667
2016-03-03,375.0
2016-03-04,375.0
2016-03-05,366.6666666666667
2016-03-06,366.6666666666667
2016-03-07,360.0
2016-03-08,360.0
2016-03-09,400.0
2016-03-10,440.0
2016-03-11,440.0
2016-03-12,450.0
2016-03-13,450.0
2016-03-14,440.0
2016-03-15,440.0
2016-03-16,420.0
2016-03-17,400.0
2016-03-18,400.0
2016-03-19,416.6666666666667
2016-03-20,416.6666666666667
2016-03-21,433.3333333333333
2016-03-22,450.0
2016-03-23,466.6666666666667
2016-03-24,466.6666666666667
2016-03-25,480.0
2016-03-26,460.0
2016-03-27,460.0
2016-03-28,460.0
2016-03-29,480.0
2016-03-30,500.0
2016-03-31,520.0
2016-04-01,516.6666666666666
2016-04-02,516.6666666666666
2016-04-03,516.6666666666666
2016-04-04,550.0
2016-04-05,616.6666666666666
2016-04-06,683.3333333333334
2016-04-07,783.3333333333334
2016-04-08,840.0
2016-04-09,950.0
2016-04-10,950.0
2016-04-11,1000.0
2016-04-12,875.0
2016-04-13,800.0
2016-04-14,700.0
2016-04-15,850.0
2016-04-16,940.0
2016-04-17,940.0
2016-04-18,1000.0
2016-04-19,1125.0
2016-04-20,1300.0
2016-04-21,1320.0
2016-04-22,1360.0
2016-04-23,1420.0
2016-04-24,1420.0
2016-04-25,1520.0
2016-04-26,1566.6666666666667
2016-04-27,1700.0
2016-04-28,1833.3333333333333
2016-04-29,1966.6666666666667
2016-04-30,2158.3333333333335
2016-05-01,2158.3333333333335
2016-05-02,2250.0
2016-05-03,2408.3333333333335
2016-05-04,2508.3333333333335
2016-05-05,2675.0
2016-05-06,2708.3333333333335
2016-05-07,2716.6666666666665
2016-05-08,2716.6666666666665
2016-05-09,2810.0
2016-05-10,3010.0
2016-05-11,3250.0
2016-05-12,3370.0
2016-05-13,3630.0
2016-05-14,3837.5
2016-05-15,3837.5
2016-05-16,3930.0
2016-05-17,3980.0
2016-05-18,3880.0
2016-05-19,3780.0
2016-05-20,3680.0
2016-05-21,3608.3333333333335
2016-05-22,3608.3333333333335
2016-05-23,3458.3333333333335
2016-05-24,3416.6666666666665
2016-05-25,3466.6666666666665
2016-05-26,3583.3333333333335
2016-05-27,3733.3333333333335
2016-05-28,3825.0
2016-05-29,3825.0
2016-05-30,3925.0
2016-05-31,3966.6666666666665
2016-06-01,4033.3333333333335
2016-06-02,4000.0
2016-06-03,4000.0
2016-06-04,4033.3333333333335
2016-06-05,4033.3333333333335
2016-06-06,4083.3333333333335
2016-06-07,4166.666666666667
2016-06-08,4341.666666666667
2016-06-09,4508.333333333333
2016-06-10,4608.333333333333
2016-06-11,4730.0
2016-06-12,4730.0
2016-06-13,4830.0
2016-06-14,5080.0
2016-06-15,5080.0
2016-06-16,5020.0
2016-06-17,4860.0
2016-06-18,4633.333333333333
2016-06-19,4633.333333333333
2016-06-20,4333.333333333333
2016-06-21,4208.333333333333
2016-06-22,3791.6666666666665
2016-06-23,3491.6666666666665
2016-06-24,3258.3333333333335
2016-06-25,3050.0
2016-06-26,3050.0
2016-06-27,2966.6666666666665
2016-06-28,2583.3333333333335
2016-06-29,2508.3333333333335
2016-06-30,2470.0
2016-07-01,2350.0
2016-07-02,2160.0
2016-07-03,2160.0
2016-07-04,2060.0
2016-07-05,2140.0
2016-07-06,1960.0
2016-07-07,1816.6666666666667
2016-07-08,1683.3333333333333
2016-07-09,1666.6666666666667
2016-07-10,1666.6666666666667
2016-07-11,1483.3333333333333
2016-07-12,1150.0
2016-07-13,1133.3333333333333
2016-07-14,1141.6666666666667
2016-07-15,1158.3333333333333
2016-07-16,1258.3333333333333
2016-07-17,1258.3333333333333
2016-07-18,1391.6666666666667
2016-07-19,1433.3333333333333
2016-07-20,1408.3333333333333
2016-07-21,1416.6666666666667
2016-07-22,1366.6666666666667
2016-07-23,1200.0
2016-07-24,1200.0
2016-07-25,1050.0
2016-07-26,925.0
2016-07-27,816.6666666666666
2016-07-28,716.6666666666666
2016-07-29,633.3333333333334
2016-07-30,583.3333333333334
2016-07-31,583.3333333333334
2016-08-01,533.3333333333334
2016-08-02,500.0
2016-08-03,483.3333333333333
2016-08-04,450.0
2016-08-05,416.6666666666667
2016-08-06,383.3333333333333
2016-08-07,385.7142857142857
2016-08-08,371.42857142857144
2016-08-09,357.14285714285717
2016-08-10,342.85714285714283
2016-08-11,328.57142857142856
2016-08-12,328.57142857142856
2016-08-13,328.57142857142856
2016-08-14,316.6666666666667
2016-08-15,300.0
2016-08-16,300.0
2016-08-17,300.0
2016-08-18,300.0
2016-08-19,300.0
2016-08-20,300.0
2016-08-21,300.0
2016-08-22,300.0
2016-08-23,300.0
2016-08-24,300.0
2016-08-25,300.0
2016-08-26,300.0
2016-08-27,300.0
2016-08-28,300.0
2016-08-29,316.6666666666667
2016-08-30,333.3333333333333
2016-08-31,333.3333333333333
2016-09-01,333.3333333333333
2016-09-02,333.3333333333333
2016-09-03,366.6666666666667
2016-09-04,366.6666666666667
2016-09-05,360.0
2016-09-06,380.0
2016-09-07,450.0
2016-09-08,500.0
2016-09-09,550.0
2016-09-10,575.0
2016-09-11,575.0
2016-09-12,690.0
2016-09-13,710.0
2016-09-14,740.0
2016-09-15,790.0
2016-09-16,775.0
2016-09-17,783.3333333333334
2016-09-18,783.3333333333334
2016-09-19,733.3333333333334
2016-09-20,791.6666666666666
2016-09-21,808.3333333333334
2016-09-22,825.0
2016-09-23,833.3333333333334
2016-09-24,925.0
2016-09-25,925.0
2016-09-26,966.6666666666666
2016-09-27,1008.3333333333334
2016-09-28,1058.3333333333333
2016-09-29,1116.6666666666667
2016-09-30,1200.0
2016-10-01,1291.6666666666667
2016-10-02,1291.6666666666667
2016-10-03,1350.0
2016-10-04,1416.6666666666667
2016-10-05,1491.6666666666667
2016-10-06,1541.6666666666667
2016-10-07,1583.3333333333333
2016-10-08,1541.6666666666667
2016-10-09,1541.6666666666667
2016-10-10,1500.0
2016-10-11,1483.3333333333333
2016-10-12,1400.0
2016-10-13,1308.3333333333333
2016-10-14,1216.6666666666667
2016-10-15,1100.0
2016-10-16,1100.0
2016-10-17,1016.6666666666666
2016-10-18,916.6666666666666
2016-10-19,841.6666666666666
2016-10-20,791.6666666666666
2016-10-21,766.6666666666666
2016-10-22,758.3333333333334
2016-10-23,758.3333333333334
2016-10-24,775.0
2016-10-25,708.3333333333334
2016-10-26,675.0
2016-10-27,641.6666666666666
2016-10-28,558.3333333333334
2016-10-29,483.3333333333333
2016-10-30,483.3333333333333
2016-10-31,400.0
2016-11-01,366.6666666666667
2016-11-02,333.3333333333333
2016-11-03,300.0
2016-11-04,300.0
2016-11-05,300.0
2016-11-06,300.0
2016-11-07,300.0
2016-11-08,316.6666666666667
2016-11-09,333.3333333333333
2016-11-10,350.0
2016-11-11,350.0
2016-11-12,350.0
2016-11-13,350.0
2016-11-14,366.6666666666667
2016-11-15,350.0
2016-11-16,333.3333333333333
2016-11-17,316.6666666666667
2016-11-18,316.6666666666667
2016-11-19,316.6666666666667
2016-11-20,316.6666666666667
2016-11-21,308.3333333333333
2016-11-22,316.6666666666667
2016-11-23,316.6666666666667
2016-11-24,316.6666666666667
2016-11-25,316.6666666666667
2016-11-26,316.6666666666667
2016-11-27,316.6666666666667
2016-11-28,308.3333333333333
2016-11-29,316.6666666666667
2016-11-30,316.6666666666667
2016-12-01,316.6666666666667
2016-12-02,316.6666666666667
2016-12-03,308.3333333333333
2016-12-04,308.3333333333333
2016-12-05,304.1666666666667
2016-12-06,287.5
2016-12-07,279.1666666666667
2016-12-08,270.8333333333333
2016-12-09,262.5
2016-12-10,262.5
2016-12-11,262.5
2016-12-12,283.3333333333333
2016-12-13,283.3333333333333
2016-12-14,308.3333333333333
2016-12-15,333.3333333333333
2016-12-16,333.3333333333333
2016-12-17,341.6666666666667
2016-12-18,341.6666666666667
2016-12-19,341.6666666666667
2016-12-20,341.6666666666667
2016-12-21,325.0
2016-12-22,308.3333333333333
2016-12-23,316.6666666666667
2016-12-24,366.6666666666667
2016-12-25,366.6666666666667
2016-12-26,383.3333333333333
2016-12-27,400.0
2016-12-28,433.3333333333333
2016-12-29,466.6666666666667
2016-12-30,500.0
2016-12-31,483.3333333333333
2017-01-01,483.3333333333333
2017-01-02,516.6666666666666
2017-01-03,550.0
2017-01-04,566.6666666666666
2017-01-05,566.6666666666666
2017-01-06,583.3333333333334
2017-01-07,600.0
2017-01-08,600.0
2017-01-09,616.6666666666666
2017-01-10,650.0
2017-01-11,683.3333333333334
2017-01-12,733.3333333333334
2017-01-13,766.6666666666666
2017-01-14,800.0
2017-01-15,800.0
2017-01-16,820.0
2017-01-17,825.0
2017-01-18,850.0
2017-01-19,937.5
2017-01-20,983.3333333333334
2017-01-21,983.3333333333334
2017-01-22,983.3333333333334
2017-01-23,1025.0
2017-01-24,1150.0
2017-01-25,1400.0
2017-01-26,1616.6666666666667
2017-01-27,1662.5
2017-01-28,1700.0
2017-01-29,1700.0
2017-01-30,1750.0
2017-01-31,1816.6666666666667
2017-02-01,1841.6666666666667
2017-02-02,1875.0
2017-02-03,1941.6666666666667
2017-02-04,2050.0
2017-02-05,2050.0
2017-02-06,2075.0
2017-02-07,2191.6666666666665
2017-02-08,2316.6666666666665
2017-02-09,2366.6666666666665
2017-02-10,2333.3333333333335
2017-02-11,2300.0
2017-02-12,2300.0
2017-02-13,2258.3333333333335
2017-02-14,2225.0
2017-02-15,2183.3333333333335
2017-02-16,2116.6666666666665
2017-02-17,2116.6666666666665
2017-02-18,2083.3333333333335
2017-02-19,2083.3333333333335
2017-02-20,2120.0
2017-02-21,2060.0
2017-02-22,2080.0
2017-02-23,2180.0
2017-02-24,2225.0
2017-02-25,2266.6666666666665
2017-02-26,2266.6666666666665
2017-02-27,2275.0
2017-02-28,2337.5
2017-03-01,2437.5
2017-03-02,2337.5
2017-03-03,2230.0
2017-03-04,2158.3333333333335
2017-03-05,2158.3333333333335
2017-03-06,2066.6666666666665
2017-03-07,1975.0
2017-03-08,1808.3333333333333
2017-03-09,1741.6666666666667
2017-03-10,1708.3333333333333
2017-03-11,1675.0
2017-03-12,1675.0
2017-03-13,1616.6666666666667
2017-03-14,1600.0
2017-03-15,1566.6666666666667
2017-03-16,1533.3333333333333
2017-03-17,1483.3333333333333
2017-03-18,1408.3333333333333
2017-03-19,1408.3333333333333
2017-03-20,1366.6666666666667
2017-03-21,1316.6666666666667
2017-03-22,1266.6666666666667
2017-03-23,1266.6666666666667
2017-03-24,1266.6666666666667
2017-03-25,1308.3333333333333
2017-03-26,1308.3333333333333
2017-03-27,1416.6666666666667
2017-03-28,1600.0
2017-03-29,1716.6666666666667
2017-03-30,1800.0
2017-03-31,1850.0
2017-04-01,1808.3333333333333
2017-04-02,1808.3333333333333
2017-04-03,1741.6666666666667
2017-04-04,1575.0
2017-04-05,1433.3333333333333
2017-04-06,1208.3333333333333
2017-04-07,1058.3333333333333
2017-04-08,1033.3333333333333
2017-04-09,1033.3333333333333
2017-04-10,916.6666666666666
2017-04-11,791.6666666666666
2017-04-12,683.3333333333334
2017-04-13,691.6666666666666
2017-04-14,666.6666666666666
2017-04-15,583.3333333333334
2017-04-16,583.3333333333334
2017-04-17,550.0
2017-04-18,525.0
2017-04-19,525.0
2017-04-20,508.3333333333333
2017-04-21,500.0
2017-04-22,500.0
2017-04-23,500.0
2017-04-24,500.0
2017-04-25,516.6666666666666
2017-04-26,516.6666666666666
2017-04-27,500.0
2017-04-28,483.3333333333333
2017-04-29,483.3333333333333
2017-04-30,483.3333333333333
2017-05-01,500.0
2017-05-02,483.3333333333333
2017-05-03,466.6666666666667
2017-05-04,466.6666666666667
2017-05-05,500.0
2017-05-06,500.0
2017-05-07,500.0
2017-05-08,483.3333333333333
2017-05-09,491.6666666666667
2017-05-10,508.3333333333333
2017-05-11,533.3333333333334
2017-05-12,516.6666666666666
2017-05-13,516.6666666666666
2017-05-14,516.6666666666666
2017-05-15,516.6666666666666
2017-05-16,508.3333333333333
2017-05-17,533.3333333333334
2017-05-18,550.0
2017-05-19,600.0
2017-05-20,616.6666666666666
2017-05-21,616.6666666666666
2017-05-22,650.0
2017-05-23,666.6666666666666
2017-05-24,708.3333333333334
2017-05-25,766.6666666666666
2017-05-26,783.3333333333334
2017-05-27,833.3333333333334
2017-05-28,833.3333333333334
2017-05-29,883.3333333333334
2017-05-30,966.6666666666666
2017-05-31,1083.3333333333333
2017-06-01,1116.6666666666667
2017-06-02,1175.0
2017-06-03,1233.3333333333333
2017-06-04,1233.3333333333333
2017-06-05,1358.3333333333333
2017-06-06,1508.3333333333333
2017-06-07,1491.6666666666667
2017-06-08,1591.6666666666667
2017-06-09,1675.0
2017-06-10,1716.6666666666667
2017-06-11,1716.6666666666667
2017-06-12,1675.0
2017-06-13,1608.3333333333333
2017-06-14,1691.6666666666667
2017-06-15,1766.6666666666667
2017-06-16,1850.0
2017-06-17,1983.3333333333333
2017-06-18,1983.3333333333333
2017-06-19,2233.3333333333335
2017-06-20,2591.6666666666665
2017-06-21,2891.6666666666665
2017-06-22,3150.0
2017-06-23,3400.0
2017-06-24,3683.3333333333335
2017-06-25,3683.3333333333335
2017-06-26,3820.0
2017-06-27,3820.0
2017-06-28,3860.0
2017-06-29,3900.0
2017-06-30,3990.0
2017-07-01,4040.0
2017-07-02,4040.0
2017-07-03,4283.333333333333
2017-07-04,4533.333333333333
2017-07-05,4741.666666666667
2017-07-06,4991.666666666667
2017-07-07,5208.333333333333
2017-07-08,5375.0
2017-07-09,5375.0
2017-07-10,5416.666666666667
2017-07-11,5500.0
2017-07-12,5625.0
2017-07-13,5708.333333333333
2017-07-14,5833.333333333333
2017-07-15,6000.0
2017-07-16,6000.0
2017-07-17,6125.0
2017-07-18,6208.333333333333
2017-07-19,6250.0
2017-07-20,6125.0
2017-07-21,6000.0
2017-07-22,5875.0
2017-07-23,5875.0
2017-07-24,5666.666666666667
2017-07-25,5541.666666666667
2017-07-26,5375.0
2017-07-27,5333.333333333333
2017-07-28,5000.0
2017-07-29,4541.666666666667
2017-07-30,4541.666666666667
2017-07-31,4125.0
2017-08-01,3750.0
2017-08-02,3441.6666666666665
2017-08-03,3233.3333333333335
2017-08-04,3191.6666666666665
2017-08-05,3233.3333333333335
2017-08-06,3233.3333333333335
2017-08-07,3275.0
2017-08-08,3233.3333333333335
2017-08-09,3133.3333333333335
2017-08-10,3050.0
2017-08-11,3050.0
2017-08-12,3091.6666666666665
2017-08-13,3091.6666666666665
2017-08-14,3133.3333333333335
2017-08-15,3175.0
2017-08-16,3250.0
2017-08-17,3166.6666666666665
2017-08-18,3208.3333333333335
2017-08-19,3216.6666666666665
2017-08-20,3216.6666666666665
2017-08-21,3191.6666666666665
2017-08-22,3150.0
2017-08-23,3066.6666666666665
2017-08-24,3108.3333333333335
2017-08-25,3066.6666666666665
2017-08-26,3058.3333333333335
2017-08-27,3058.3333333333335
2017-08-28,2925.0
2017-08-29,2791.6666666666665
2017-08-30,2666.6666666666665
2017-08-31,2500.0
2017-09-01,2208.3333333333335
2017-09-02,1850.0
2017-09-03,1850.0
2017-09-04,1666.6666666666667
2017-09-05,1550.0
2017-09-06,1408.3333333333333
2017-09-07,1266.6666666666667
2017-09-08,1183.3333333333333
2017-09-09,1166.6666666666667
2017-09-10,1166.6666666666667
2017-09-11,1150.0
2017-09-12,1050.0
2017-09-13,1008.3333333333334
2017-09-14,1016.6666666666666
2017-09-15,1075.0
2017-09-16,1133.3333333333333
2017-09-17,1133.3333333333333
2017-09-18,1141.6666666666667
2017-09-19,1175.0
2017-09-20,1191.6666666666667
2017-09-21,1183.3333333333333
2017-09-22,1125.0
2017-09-23,1050.0
2017-09-24,1050.0
2017-09-25,1008.3333333333334
2017-09-26,1016.6666666666666
2017-09-27,1041.6666666666667
2017-09-28,1083.3333333333333
2017-09-29,1100.0
2017-09-30,1150.0
2017-10-01,1150.0
2017-10-02,1300.0
2017-10-03,1412.5
2017-10-04,1500.0
2017-10-05,1525.0
2017-10-06,1520.0
2017-10-07,1533.3333333333333
2017-10-08,1533.3333333333333
2017-10-09,1658.3333333333333
2017-10-10,1766.6666666666667
2017-10-11,1891.6666666666667
2017-10-12,1941.6666666666667
2017-10-13,2025.0
2017-10-14,2175.0
2017-10-15,2175.0
2017-10-16,2258.3333333333335
2017-10-17,2450.0
2017-10-18,2641.6666666666665
2017-10-19,2925.0
2017-10-20,3110.0
2017-10-21,3370.0
2017-10-22,3370.0
2017-10-23,3580.0
2017-10-24,3660.0
2017-10-25,3880.0
2017-10-26,3940.0
2017-10-27,3916.6666666666665
2017-10-28,3950.0
2017-10-29,3950.0
2017-10-30,3866.6666666666665
2017-10-31,3858.3333333333335
2017-11-01,3650.0
2017-11-02,3516.6666666666665
2017-11-03,3383.3333333333335
2017-11-04,3183.3333333333335
2017-11-05,3183.3333333333335
2017-11-06,3300.0
2017-11-07,3308.3333333333335
2017-11-08,3391.6666666666665
2017-11-09,3516.6666666666665
2017-11-10,3725.0
2017-11-11,3966.6666666666665
2017-11-12,3966.6666666666665
2017-11-13,4008.3333333333335
2017-11-14,4125.0
2017-11-15,4333.333333333333
2017-11-16,4333.333333333333
2017-11-17,4225.0
2017-11-18,4150.0
2017-11-19,4150.0
2017-11-20,4066.6666666666665
2017-11-21,3866.6666666666665
2017-11-22,3408.3333333333335
2017-11-23,3166.6666666666665
2017-11-24,3025.0
2017-11-25,2850.0
2017-11-26,2850.0
2017-11-27,2608.3333333333335
2017-11-28,2416.6666666666665
2017-11-29,2358.3333333333335
2017-11-30,2275.0
2017-12-01,2116.6666666666665
2017-12-02,2016.6666666666667
2017-12-03,2016.6666666666667
2017-12-04,1933.3333333333333
2017-12-05,1875.0
2017-12-06,1858.3333333333333
2017-12-07,1841.6666666666667
2017-12-08,1758.3333333333333
2017-12-09,1566.6666666666667
2017-12-10,1566.6666666666667
2017-12-11,1475.0
2017-12-12,1366.6666666666667
2017-12-13,1216.6666666666667
2017-12-14,1100.0
2017-12-15,1016.6666666666666
2017-12-16,983.3333333333334
2017-12-17,983.3333333333334
2017-12-18,875.0
2017-12-19,816.6666666666666
2017-12-20,766.6666666666666
2017-12-21,683.3333333333334
2017-12-22,616.6666666666666
2017-12-23,550.0
2017-12-24,550.0
2017-12-25,533.3333333333334
2017-12-26,466.6666666666667
2017-12-27,433.3333333333333
2017-12-28,416.6666666666667
2017-12-29,433.3333333333333
2017-12-30,433.3333333333333
2017-12-31,433.3333333333333
2018-01-01,416.6666666666667
2018-01-02,433.3333333333333
2018-01-03,450.0
2018-01-04,466.6666666666667
2018-01-05,466.6666666666667
2018-01-06,500.0
2018-01-07,500.0
2018-01-08,500.0
2018-01-09,500.0
2018-01-10,516.6666666666666
2018-01-11,533.3333333333334
2018-01-12,566.6666666666666
2018-01-13,550.0
2018-01-14,550.0
2018-01-15,550.0
2018-01-16,566.6666666666666
2018-01-17,566.6666666666666
2018-01-18,550.0
2018-01-19,500.0
2018-01-20,466.6666666666667
2018-01-21,466.6666666666667
2018-01-22,483.3333333333333
2018-01-23,466.6666666666667
2018-01-24,433.3333333333333
2018-01-25,416.6666666666667
2018-01-26,416.6666666666667
2018-01-27,433.3333333333333
2018-01-28,433.3333333333333
2018-01-29,416.6666666666667
2018-01-30,400.0
2018-01-31,383.3333333333333
2018-02-01,366.6666666666667
2018-02-02,366.6666666666667
2018-02-03,383.3333333333333
2018-02-04,383.3333333333333
2018-02-05,400.0
2018-02-06,400.0
2018-02-07,416.6666666666667
2018-02-08,433.3333333333333
2018-02-09,433.3333333333333
2018-02-10,416.6666666666667
2018-02-11,416.6666666666667
2018-02-12,383.3333333333333
2018-02-13,383.3333333333333
2018-02-14,400.0
2018-02-15,400.0
2018-02-16,400.0
2018-02-17,383.3333333333333
2018-02-18,383.3333333333333
2018-02-19,400.0
2018-02-20,416.6666666666667
2018-02-21,416.6666666666667
2018-02-22,433.3333333333333
2018-02-23,450.0
2018-02-24,500.0
2018-02-25,500.0
2018-02-26,566.6666666666666
2018-02-27,633.3333333333334
2018-02-28,666.6666666666666
2018-03-01,666.6666666666666
2018-03-02,650.0
2018-03-03,633.3333333333334
2018-03-04,633.3333333333334
2018-03-05,616.6666666666666
2018-03-06,583.3333333333334
2018-03-07,566.6666666666666
2018-03-08,600.0
2018-03-09,616.6666666666666
2018-03-10,616.6666666666666
2018-03-11,616.6666666666666
2018-03-12,600.0
2018-03-13,566.6666666666666
2018-03-14,550.0
2018-03-15,533.3333333333334
2018-03-16,533.3333333333334
2018-03-17,533.3333333333334
2018-03-18,533.3333333333334
2018-03-19,583.3333333333334
2018-03-20,616.6666666666666
2018-03-21,600.0
2018-03-22,566.6666666666666
2018-03-23,533.3333333333334
2018-03-24,516.6666666666666
2018-03-25,516.6666666666666
2018-03-26,450.0
2018-03-27,450.0
2018-03-28,466.6666666666667
2018-03-29,500.0
2018-03-30,550.0
2018-03-31,591.6666666666666
2018-04-01,591.6666666666666
2018-04-02,616.6666666666666
2018-04-03,608.3333333333334
2018-04-04,641.6666666666666
2018-04-05,658.3333333333334
2018-04-06,741.6666666666666
2018-04-07,800.0
2018-04-08,800.0
2018-04-09,883.3333333333334
2018-04-10,958.3333333333334
2018-04-11,991.6666666666666
2018-04-12,1041.6666666666667
2018-04-13,1008.3333333333334
2018-04-14,1033.3333333333333
2018-04-15,1033.3333333333333
2018-04-16,975.0
2018-04-17,908.3333333333334
2018-04-18,875.0
2018-04-19,825.0
2018-04-20,810.0
2018-04-21,725.0
2018-04-22,725.0
2018-04-23,700.0
2018-04-24,700.0
2018-04-25,751.8518518518518
2018-04-26,848.1481481481482
2018-04-27,900.0
2018-04-28,833.3333333333334
2018-04-29,833.3333333333334
2018-04-30,775.0
2018-05-01,720.0
2018-05-02,683.3333333333334
2018-05-03,633.3333333333334
2018-05-04,583.3333333333334
2018-05-05,566.6666666666666
2018-05-06,566.6666666666666
2018-05-07,550.0
2018-05-08,575.0
2018-05-09,641.6666666666666
2018-05-10,691.6666666666666
2018-05-11,716.6666666666666
2018-05-12,740.0
2018-05-13,740.0
2018-05-14,860.0
2018-05-15,990.0
2018-05-16,1070.0
2018-05-17,1120.0
2018-05-18,1120.0
2018-05-19,1083.3333333333333
2018-05-20,1083.3333333333333
2018-05-21,1033.3333333333333
2018-05-22,966.6666666666666
2018-05-23,900.0
2018-05-24,908.3333333333334
2018-05-25,975.0
2018-05-26,1008.3333333333334
2018-05-27,1008.3333333333334
2018-05-28,1066.6666666666667
2018-05-29,1100.0
2018-05-30,1100.0
2018-05-31,1091.6666666666667
2018-06-01,1066.6666666666667
2018-06-02,1033.3333333333333
2018-06-03,1033.3333333333333
2018-06-04,983.3333333333334
2018-06-05,950.0
2018-06-06,950.0
2018-06-07,908.3333333333334
2018-06-08,908.3333333333334
2018-06-09,991.6666666666666
2018-06-10,991.6666666666666
2018-06-11,1041.6666666666667
2018-06-12,1075.0
2018-06-13,1125.0
2018-06-14,1175.0
2018-06-15,1208.3333333333333
2018-06-16,1208.3333333333333
2018-06-17,1208.3333333333333
2018-06-18,1283.3333333333333
2018-06-19,1400.0
2018-06-20,1450.0
2018-06-21,1441.6666666666667
2018-06-22,1475.0
2018-06-23,1475.0
2018-06-24,1475.0
2018-06-25,1441.6666666666667
2018-06-26,1308.3333333333333
2018-06-27,1225.0
2018-06-28,1200.0
2018-06-29,1116.6666666666667
2018-06-30,1033.3333333333333
2018-07-01,1033.3333333333333
2018-07-02,991.6666666666666
2018-07-03,1016.6666666666666
2018-07-04,1041.6666666666667
2018-07-05,1062.5
2018-07-06,1112.5
2018-07-07,1195.8333333333333
2018-07-08,1195.8333333333333
2018-07-09,1254.1666666666667
2018-07-10,1262.5
2018-07-11,1237.5
2018-07-12,1250.0
2018-07-13,1250.0
2018-07-14,1241.6666666666667
2018-07-15,1241.6666666666667
2018-07-16,1191.6666666666667
2018-07-17,1258.3333333333333
2018-07-18,1366.6666666666667
2018-07-19,1416.6666666666667
2018-07-20,1450.0
2018-07-21,1458.3333333333333
2018-07-22,1458.3333333333333
2018-07-23,1458.3333333333333
2018-07-24,1391.6666666666667
2018-07-25,1283.3333333333333
2018-07-26,1183.3333333333333
2018-07-27,1100.0
2018-07-28,1000.0
2018-07-29,1000.0
2018-07-30,916.6666666666666
2018-07-31,816.6666666666666
2018-08-01,783.3333333333334
2018-08-02,766.6666666666666
2018-08-03,733.3333333333334
2018-08-04,716.6666666666666
2018-08-05,716.6666666666666
2018-08-06,716.6666666666666
2018-08-07,700.0
2018-08-08,650.0
2018-08-09,600.0
2018-08-10,566.6666666666666
2018-08-11,533.3333333333334
2018-08-12,533.3333333333334
2018-08-13,500.0
2018-08-14,533.3333333333334
2018-08-15,566.6666666666666
2018-08-16,616.6666666666666
2018-08-17,650.0
2018-08-18,716.6666666666666
2018-08-19,716.6666666666666
2018-08-20,825.0
2018-08-21,858.3333333333334
2018-08-22,858.3333333333334
2018-08-23,825.0
2018-08-24,825.0
2018-08-25,825.0
2018-08-26,825.0
2018-08-27,733.3333333333334
2018-08-28,666.6666666666666
2018-08-29,616.6666666666666
2018-08-30,600.0
2018-08-31,583.3333333333334
2018-09-01,550.0
2018-09-02,550.0
2018-09-03,583.3333333333334
2018-09-04,633.3333333333334
2018-09-05,683.3333333333334
2018-09-06,716.6666666666666
2018-09-07,700.0
2018-09-08,683.3333333333334
2018-09-09,683.3333333333334
2018-09-10,650.0
2018-09-11,616.6666666666666
2018-09-12,600.0
2018-09-13,583.3333333333334
2018-09-14,650.0
2018-09-15,633.3333333333334
2018-09-16,633.3333333333334
2018-09-17,616.6666666666666
2018-09-18,600.0
2018-09-19,616.6666666666666
2018-09-20,616.6666666666666
2018-09-21,550.0
2018-09-22,550.0
2018-09-23,550.0
2018-09-24,550.0
2018-09-25,583.3333333333334
2018-09-26,550.0
2018-09-27,583.3333333333334
2018-09-28,625.0
2018-09-29,675.0
2018-09-30,675.0
2018-10-01,741.6666666666666
2018-10-02,741.6666666666666
2018-10-03,775.0
2018-10-04,775.0
2018-10-05,800.0
2018-10-06,783.3333333333334
2018-10-07,783.3333333333334
2018-10-08,766.6666666666666
2018-10-09,783.3333333333334
2018-10-10,783.3333333333334
2018-10-11,750.0
2018-10-12,691.6666666666666
2018-10-13,666.6666666666666
2018-10-14,666.6666666666666
2018-10-15,633.3333333333334
2018-10-16,633.3333333333334
2018-10-17,633.3333333333334
2018-10-18,640.0
2018-10-19,640.0
2018-10-20,650.0
2018-10-21,650.0
2018-10-22,710.0
2018-10-23,730.0
2018-10-24,820.0
2018-10-25,833.3333333333334
2018-10-26,858.3333333333334
2018-10-27,950.0
2018-10-28,950.0
2018-10-29,983.3333333333334
2018-10-30,1016.6666666666666
2018-10-31,1016.6666666666666
2018-11-01,1083.3333333333333
2018-11-02,1158.3333333333333
2018-11-03,1150.0
2018-11-04,1150.0
2018-11-05,1116.6666666666667
2018-11-06,1066.6666666666667
2018-11-07,1025.0
2018-11-08,1000.0
2018-11-09,1000.0
2018-11-10,1033.3333333333333
2018-11-11,1033.3333333333333
2018-11-12,1100.0
2018-11-13,1200.0
2018-11-14,1241.6666666666667
2018-11-15,1241.6666666666667
2018-11-16,1233.3333333333333
2018-11-17,1250.0
2018-11-18,1250.0
2018-11-19,1266.6666666666667
2018-11-20,1266.6666666666667
2018-11-21,1341.6666666666667
2018-11-22,1383.3333333333333
2018-11-23,1433.3333333333333
2018-11-24,1400.0
2018-11-25,1400.0
2018-11-26,1416.6666666666667
2018-11-27,1416.6666666666667
2018-11-28,1350.0
2018-11-29,1350.0
2018-11-30,1366.6666666666667
2018-12-01,1416.6666666666667
2018-12-02,1416.6666666666667
2018-12-03,1416.6666666666667
2018-12-04,1433.3333333333333
2018-12-05,1483.3333333333333
2018-12-06,1500.0
2018-12-07,1441.6666666666667
2018-12-08,1358.3333333333333
2018-12-09,1358.3333333333333
2018-12-10,1300.0
2018-12-11,1233.3333333333333
2018-12-12,1166.6666666666667
2018-12-13,1083.3333333333333
2018-12-14,1041.6666666666667
2018-12-15,1066.6666666666667
2018-12-16,1066.6666666666667
2018-12-17,1066.6666666666667
2018-12-18,1075.0
2018-12-19,1075.0
2018-12-20,1100.0
2018-12-21,1150.0
2018-12-22,1158.3333333333333
2018-12-23,1158.3333333333333
2018-12-24,1200.0
2018-12-25,1210.0
2018-12-26,1190.0
2018-12-27,1160.0
2018-12-28,1120.0
2018-12-29,1160.0
2018-12-30,1160.0
2018-12-31,1160.0
2019-01-01,1200.0
2019-01-02,1300.0
2019-01-03,1400.0
2019-01-04,1516.6666666666667
2019-01-05,1716.6666666666667
2019-01-06,1716.6666666666667
2019-01-07,2000.0
2019-01-08,2400.0
2019-01-09,2658.3333333333335
2019-01-10,2933.3333333333335
2019-01-11,3166.6666666666665
2019-01-12,3258.3333333333335
2019-01-13,3258.3333333333335
2019-01-14,3258.3333333333335
2019-01-15,3083.3333333333335
2019-01-16,3016.6666666666665
2019-01-17,2908.3333333333335
2019-01-18,2766.6666666666665
2019-01-19,2558.3333333333335
2019-01-20,2558.3333333333335
2019-01-21,2291.6666666666665
2019-01-22,2125.0
2019-01-23,1900.0
2019-01-24,1783.3333333333333
2019-01-25,1675.0
2019-01-26,1650.0
2019-01-27,1650.0
2019-01-28,1683.3333333333333
2019-01-29,1641.6666666666667
2019-01-30,1591.6666666666667
2019-01-31,1458.3333333333333
2019-02-01,1358.3333333333333
2019-02-02,1216.6666666666667
2019-02-03,1216.6666666666667
2019-02-04,1050.0
2019-02-05,983.3333333333334
2019-02-06,1000.0
2019-02-07,1000.0
2019-02-08,1000.0
2019-02-09,1000.0
2019-02-10,1000.0
2019-02-11,1000.0
2019-02-12,966.6666666666666
2019-02-13,883.3333333333334
2019-02-14,816.6666666666666
2019-02-15,783.3333333333334
2019-02-16,766.6666666666666
2019-02-17,766.6666666666666
2019-02-18,766.6666666666666
2019-02-19,750.0
2019-02-20,775.0
2019-02-21,791.6666666666666
2019-02-22,808.3333333333334
2019-02-23,825.0
2019-02-24,825.0
2019-02-25,858.3333333333334
2019-02-26,866.6666666666666
2019-02-27,891.6666666666666
2019-02-28,925.0
2019-03-01,941.6666666666666
2019-03-02,941.6666666666666
2019-03-03,941.6666666666666
2019-03-04,941.6666666666666
2019-03-05,933.3333333333334
2019-03-06,916.6666666666666
2019-03-07,883.3333333333334
2019-03-08,866.6666666666666
2019-03-09,858.3333333333334
2019-03-10,858.3333333333334
2019-03-11,858.3333333333334
2019-03-12,908.3333333333334
2019-03-13,925.0
2019-03-14,975.0
2019-03-15,1000.0
2019-03-16,1025.0
2019-03-17,1025.0
2019-03-18,1041.6666666666667
2019-03-19,1058.3333333333333
2019-03-20,1158.3333333333333
2019-03-21,1175.0
2019-03-22,1183.3333333333333
2019-03-23,1200.0
2019-03-24,1200.0
2019-03-25,1250.0
2019-03-26,1283.3333333333333
2019-03-27,1200.0
2019-03-28,1166.6666666666667
2019-03-29,1150.0
2019-03-30,1158.3333333333333
2019-03-31,1158.3333333333333
2019-04-01,1158.3333333333333
2019-04-02,1175.0
2019-04-03,1258.3333333333333
2019-04-04,1466.6666666666667
2019-04-05,1633.3333333333333
2019-04-06,1708.3333333333333
2019-04-07,1708.3333333333333
2019-04-08,1891.6666666666667
2019-04-09,1991.6666666666667
2019-04-10,2016.6666666666667
2019-04-11,1958.3333333333333
2019-04-12,2108.3333333333335
2019-04-13,2325.0
2019-04-14,2325.0
2019-04-15,2441.6666666666665
2019-04-16,2608.3333333333335
2019-04-17,2833.3333333333335
2019-04-18,3020.0
2019-04-19,2990.0
2019-04-20,3060.0
2019-04-21,3060.0
2019-04-22,3090.0
2019-04-23,3010.0
2019-04-24,2970.0
2019-04-25,3000.0
2019-04-26,2916.6666666666665
2019-04-27,2833.3333333333335
2019-04-28,2833.3333333333335
2019-04-29,2833.3333333333335
2019-04-30,2925.0
2019-05-01,2908.3333333333335
2019-05-02,2925.0
2019-05-03,3133.3333333333335
2019-05-04,3200.0
2019-05-05,3200.0
2019-05-06,3258.3333333333335
2019-05-07,3258.3333333333335
2019-05-08,3333.3333333333335
2019-05-09,3275.0
2019-05-10,3175.0
2019-05-11,3116.6666666666665
2019-05-12,3116.6666666666665
2019-05-13,3058.3333333333335
2019-05-14,3058.3333333333335
2019-05-15,3000.0
2019-05-16,3058.3333333333335
2019-05-17,3158.3333333333335
2019-05-18,3241.6666666666665
2019-05-19,3241.6666666666665
2019-05-20,3350.0
2019-05-21,3350.0
2019-05-22,3491.6666666666665
2019-05-23,3616.6666666666665
2019-05-24,3666.6666666666665
2019-05-25,3666.6666666666665
2019-05-26,3666.6666666666665
2019-05-27,3641.6666666666665
2019-05-28,3625.0
2019-05-29,3708.3333333333335
2019-05-30,3858.3333333333335
2019-05-31,3933.3333333333335
2019-06-01,4091.6666666666665
2019-06-02,4121.428571428572
2019-06-03,4192.857142857143
2019-06-04,4257.142857142857
2019-06-05,4114.285714285715
2019-06-06,3814.285714285714
2019-06-07,3671.4285714285716
2019-06-08,3528.5714285714284
2019-06-09,3400.0
2019-06-10,3316.6666666666665
2019-06-11,3200.0
2019-06-12,3116.6666666666665
2019-06-13,3191.6666666666665
2019-06-14,3133.3333333333335
2019-06-15,3050.0
2019-06-16,3050.0
2019-06-17,2950.0
2019-06-18,2933.3333333333335
2019-06-19,2933.3333333333335
2019-06-20,2933.3333333333335
2019-06-21,2975.0
2019-06-22,3033.3333333333335
2019-06-23,3033.3333333333335
2019-06-24,2966.6666666666665
2019-06-25,2933.3333333333335
2019-06-26,2850.0
2019-06-27,2770.0
2019-06-28,2675.0
2019-06-29,2533.3333333333335
2019-06-30,2533.3333333333335
2019-07-01,2425.0
2019-07-02,2433.918518518519
2019-07-03,2459.014814814815
2019-07-04,2497.8
2019-07-05,2550.0666666666666
2019-07-06,2602.3333333333335
2019-07-07,2654.6000000000004
2019-07-08,2706.866666666667
2019-07-09,2759.133333333333
2019-07-10,2811.4
2019-07-11,2863.666666666667
2019-07-12,2915.9333333333334
2019-07-13,2968.2
2019-07-14,3020.4666666666667
2019-07-15,3072.7333333333336
2019-07-16,3125.0
2019-07-17,3083.3333333333335
2019-07-18,3100.0
2019-07-19,3010.0
2019-07-20,2941.6666666666665
2019-07-21,2941.6666666666665
2019-07-22,2791.6666666666665
2019-07-23,2616.6666666666665
2019-07-24,2416.6666666666665
2019-07-25,2175.0
2019-07-26,1983.3333333333333
2019-07-27,1816.6666666666667
2019-07-28,1816.6666666666667
2019-07-29,1741.6666666666667
2019-07-30,1691.6666666666667
2019-07-31,1708.3333333333333
2019-08-01,1700.0
2019-08-02,1725.0
2019-08-03,1725.0
2019-08-04,1725.0
2019-08-05,1733.3333333333333
2019-08-06,1708.3333333333333
2019-08-07,1666.6666666666667
2019-08-08,1625.0
2019-08-09,1583.3333333333333
2019-08-10,1508.3333333333333
2019-08-11,1508.3333333333333
2019-08-12,1425.0
2019-08-13,1383.3333333333333
2019-08-14,1300.0
2019-08-15,1216.6666666666667
2019-08-16,1133.3333333333333
2019-08-17,1141.6666666666667
2019-08-18,1141.6666666666667
2019-08-19,1116.6666666666667
2019-08-20,1066.6666666666667
2019-08-21,1058.3333333333333
2019-08-22,1058.3333333333333
2019-08-23,1050.0
2019-08-24,1000.0
2019-08-25,1000.0
2019-08-26,941.6666666666666
2019-08-27,908.3333333333334
2019-08-28,858.3333333333334
2019-08-29,841.6666666666666
2019-08-30,833.3333333333334
2019-08-31,816.6666666666666
2019-09-01,816.6666666666666
2019-09-02,820.0
2019-09-03,820.0
2019-09-04,800.0
2019-09-05,780.0
2019-09-06,760.0
2019-09-07,740.0
2019-09-08,740.0
2019-09-09,750.0
2019-09-10,716.6666666666666
2019-09-11,716.6666666666666
2019-09-12,716.6666666666666
2019-09-13,716.6666666666666
2019-09-14,733.3333333333334
2019-09-15,733.3333333333334
2019-09-16,783.3333333333334
2019-09-17,850.0
2019-09-18,933.3333333333334
2019-09-19,1066.6666666666667
2019-09-20,1133.3333333333333
2019-09-21,1183.3333333333333
2019-09-22,1183.3333333333333
2019-09-23,1191.6666666666667
2019-09-24,1191.6666666666667
2019-09-25,1216.6666666666667
2019-09-26,1216.6666666666667
2019-09-27,1283.3333333333333
2019-09-28,1416.6666666666667
2019-09-29,1416.6666666666667
2019-09-30,1600.0
2019-10-01,1733.3333333333333
2019-10-02,1758.3333333333333
2019-10-03,1783.3333333333333
2019-10-04,1833.3333333333333
2019-10-05,1891.6666666666667
2019-10-06,1891.6666666666667
2019-10-07,1820.0
2019-10-08,1780.0
2019-10-09,1800.0
2019-10-10,1770.0
2019-10-11,1730.0
2019-10-12,1730.0
2019-10-13,1741.6666666666667
2019-10-14,1750.0
2019-10-15,1764.2857142857142
2019-10-16,1792.857142857143
2019-10-17,1878.5714285714287
2019-10-18,1935.7142857142858
2019-10-19,1842.857142857143
2019-10-20,1850.0
2019-10-21,1850.0
2019-10-22,1816.6666666666667
2019-10-23,1783.3333333333333
2019-10-24,1725.0
2019-10-25,1750.0
2019-10-26,1900.0
2019-10-27,1900.0
2019-10-28,1975.0
2019-10-29,2083.3333333333335
2019-10-30,2233.3333333333335
2019-10-31,2400.0
2019-11-01,2358.3333333333335
2019-11-02,2300.0
2019-11-03,2300.0
2019-11-04,2383.3333333333335
2019-11-05,2383.3333333333335
2019-11-06,2341.6666666666665
2019-11-07,2200.0
2019-11-08,2241.6666666666665
2019-11-09,2233.3333333333335
2019-11-10,2233.3333333333335
2019-11-11,2050.0
2019-11-12,1941.6666666666667
2019-11-13,1816.6666666666667
2019-11-14,1733.3333333333333
2019-11-15,1541.6666666666667
2019-11-16,1375.0
2019-11-17,1375.0
2019-11-18,1283.3333333333333
2019-11-19,1250.0
2019-11-20,1250.0
2019-11-21,1283.3333333333333
2019-11-22,1450.0
2019-11-23,1600.0
2019-11-24,1600.0
2019-11-25,1716.6666666666667
2019-11-26,1791.6666666666667
2019-11-27,1841.6666666666667
2019-11-28,1925.0
2019-11-29,1925.0
2019-11-30,1875.0
2019-12-01,1875.0
2019-12-02,1858.3333333333333
2019-12-03,1933.3333333333333
2019-12-04,1983.3333333333333
2019-12-05,1916.6666666666667
2019-12-06,1966.6666666666667
2019-12-07,1966.6666666666667
2019-12-08,1966.6666666666667
2019-12-09,2066.6666666666665
2019-12-10,1933.3333333333333
2019-12-11,1750.0
2019-12-12,1650.0
2019-12-13,1450.0
2019-12-14,1466.6666666666667
2019-12-15,1466.6666666666667
2019-12-16,1333.3333333333333
2019-12-17,1333.3333333333333
2019-12-18,1416.6666666666667
2019-12-19,1433.3333333333333
2019-12-20,1433.3333333333333
2019-12-21,1350.0
2019-12-22,1350.0
2019-12-23,1300.0
2019-12-24,1250.0
2019-12-25,1200.0
2019-12-26,1160.0
2019-12-27,1170.0
2019-12-28,1190.0
2019-12-29,1190.0
2019-12-30,1230.0
2019-12-31,1270.0
2020-01-01,1308.3333333333333
2020-01-02,1391.6666666666667
2020-01-03,1433.3333333333333
2020-01-04,1433.3333333333333
2020-01-05,1433.3333333333333
2020-01-06,1433.3333333333333
2020-01-07,1400.0
2020-01-08,1400.0
2020-01-09,1383.3333333333333
2020-01-10,1383.3333333333333
2020-01-11,1380.0
2020-01-12,1380.0
2020-01-13,1440.0
2020-01-14,1440.0
2020-01-15,1425.0
2020-01-16,1425.0
2020-01-17,1475.0
2020-01-18,1460.0
2020-01-19,1460.0
2020-01-20,1350.0
2020-01-21,1350.0
2020-01-22,1358.3333333333333
2020-01-23,1316.6666666666667
2020-01-24,1216.6666666666667
2020-01-25,1180.0
2020-01-26,1180.0
2020-01-27,1170.0
2020-01-28,1130.0
2020-01-29,1070.0
2020-01-30,1060.0
2020-01-31,1100.0
2020-02-01,1100.0
2020-02-02,1100.0
2020-02-03,1066.6666666666667
2020-02-04,1050.0
2020-02-05,1016.6666666666666
2020-02-06,950.0
2020-02-07,841.6666666666666
2020-02-08,758.3333333333334
2020-02-09,758.3333333333334
2020-02-10,725.0
2020-02-11,691.6666666666666
2020-02-12,658.3333333333334
2020-02-13,658.3333333333334
2020-02-14,666.6666666666666
2020-02-15,683.3333333333334
2020-02-16,683.3333333333334
2020-02-17,683.3333333333334
2020-02-18,700.0
2020-02-19,700.0
2020-02-20,700.0
2020-02-21,716.6666666666666
2020-02-22,791.6666666666666
2020-02-23,791.6666666666666
2020-02-24,791.6666666666666
2020-02-25,775.0
2020-02-26,758.3333333333334
2020-02-27,741.6666666666666
2020-02-28,725.0
2020-02-29,633.3333333333334
2020-03-01,633.3333333333334
2020-03-02,616.6666666666666
2020-03-03,600.0
2020-03-04,616.6666666666666
2020-03-05,633.3333333333334
2020-03-06,633.3333333333334
2020-03-07,633.3333333333334
2020-03-08,633.3333333333334
2020-03-09,650.0
2020-03-10,666.6666666666666
2020-03-11,654.1666666666666
2020-03-12,654.1666666666666
2020-03-13,670.8333333333334
2020-03-14,687.5
2020-03-15,687.5
2020-03-16,737.5
2020-03-17,754.1666666666666
2020-03-18,766.6666666666666
2020-03-19,816.6666666666666
2020-03-20,866.6666666666666
2020-03-21,866.6666666666666
2020-03-22,866.6666666666666
2020-03-23,950.0
2020-03-24,1116.6666666666667
2020-03-25,1200.0
2020-03-26,1330.0
2020-03-27,1390.0
2020-03-28,1480.0
2020-03-29,1480.0
2020-03-30,1350.0
2020-03-31,1220.0
2020-04-01,1133.3333333333333
2020-04-02,1008.3333333333334
2020-04-03,908.3333333333334
2020-04-04,833.3333333333334
2020-04-05,814.2857142857143
2020-04-06,785.7142857142857
2020-04-07,721.4285714285714
2020-04-08,714.2857142857143
2020-04-09,685.7142857142857
2020-04-10,678.5714285714286
2020-04-11,671.4285714285714
2020-04-12,671.4285714285714
2020-04-13,671.4285714285714
2020-04-14,685.7142857142857
2020-04-15,685.7142857142857
2020-04-16,685.7142857142857
2020-04-17,678.5714285714286
2020-04-18,678.5714285714286
2020-04-19,671.4285714285714
2020-04-20,664.2857142857143
2020-04-21,635.7142857142857
2020-04-22,628.5714285714286
2020-04-23,600.0
2020-04-24,585.7142857142857
2020-04-25,564.2857142857143
2020-04-26,550.0
2020-04-27,533.3333333333334
2020-04-28,516.6666666666666
2020-04-29,500.0
2020-04-30,500.0
2020-05-01,500.0
2020-05-02,516.6666666666666
2020-05-03,514.2857142857143
2020-05-04,514.2857142857143
2020-05-05,514.2857142857143
2020-05-06,514.2857142857143
2020-05-07,514.2857142857143
2020-05-08,514.2857142857143
2020-05-09,500.0
2020-05-10,500.0
2020-05-11,500.0
2020-05-12,500.0
2020-05-13,500.0
2020-05-14,514.2857142857143
2020-05-15,528.5714285714286
2020-05-16,542.8571428571429
2020-05-17,557.1428571428571
2020-05-18,557.1428571428571
2020-05-19,578.5714285714286
2020-05-20,592.8571428571429
2020-05-21,592.8571428571429
2020-05-22,592.8571428571429
2020-05-23,592.8571428571429
2020-05-24,591.6666666666666
2020-05-25,608.3333333333334
2020-05-26,616.6666666666666
2020-05-27,633.3333333333334
2020-05-28,666.6666666666666
2020-05-29,708.3333333333334
2020-05-30,758.3333333333334
2020-05-31,758.3333333333334
2020-06-01,908.3333333333334
2020-06-02,991.6666666666666
2020-06-03,1091.6666666666667
2020-06-04,1175.0
2020-06-05,1233.3333333333333
2020-06-06,1250.0
2020-06-07,1200.0
2020-06-08,1142.857142857143
2020-06-09,1100.0
2020-06-10,1071.4285714285713
2020-06-11,1057.142857142857
2020-06-12,1064.2857142857142
2020-06-13,1092.857142857143
2020-06-14,1150.0
2020-06-15,1171.4285714285713
2020-06-16,1207.142857142857
2020-06-17,1221.4285714285713
2020-06-18,1235.7142857142858
2020-06-19,1242.857142857143
2020-06-20,1314.2857142857142
2020-06-21,1442.857142857143
2020-06-22,1592.857142857143
2020-06-23,1757.142857142857
2020-06-24,1971.4285714285713
2020-06-25,2171.4285714285716
2020-06-26,2414.285714285714
2020-06-27,2642.8571428571427
2020-06-28,2716.6666666666665
2020-06-29,2800.0
2020-06-30,2916.6666666666665
2020-07-01,2966.6666666666665
2020-07-02,2983.3333333333335
2020-07-03,2950.0
2020-07-04,2766.6666666666665
2020-07-05,2766.6666666666665
2020-07-06,2766.6666666666665
2020-07-07,2733.3333333333335
2020-07-08,2683.3333333333335
2020-07-09,2683.3333333333335
2020-07-10,2716.6666666666665
2020-07-11,2816.6666666666665
2020-07-12,2816.6666666666665
2020-07-13,2833.3333333333335
2020-07-14,2866.6666666666665
2020-07-15,3000.0
2020-07-16,3066.6666666666665
2020-07-17,3033.3333333333335
2020-07-18,2966.6666666666665
2020-07-19,2966.6666666666665
2020-07-20,2858.3333333333335
2020-07-21,2583.3333333333335
2020-07-22,2366.6666666666665
2020-07-23,2216.6666666666665
2020-07-24,2116.6666666666665
2020-07-25,2016.6666666666667
2020-07-26,2016.6666666666667
2020-07-27,1858.3333333333333
2020-07-28,1833.3333333333333
2020-07-29,1666.6666666666667
2020-07-30,1550.0
2020-07-31,1383.3333333333333
2020-08-01,1266.6666666666667
2020-08-02,1266.6666666666667
2020-08-03,1233.3333333333333
2020-08-04,1175.0
2020-08-05,1175.0
2020-08-06,1158.3333333333333
2020-08-07,1208.3333333333333
2020-08-08,1275.0
2020-08-09,1275.0
2020-08-10,1383.3333333333333
2020-08-11,1541.6666666666667
2020-08-12,1708.3333333333333
2020-08-13,1791.6666666666667
2020-08-14,1916.6666666666667
2020-08-15,2000.0
2020-08-16,2000.0
2020-08-17,2062.5
2020-08-18,2150.0
2020-08-19,2125.0
2020-08-20,2125.5638547878802
2020-08-21,2127.2781577097235
2020-08-22,2130.1770166028346
2020-08-23,2141.070015093486
2020-08-24,2151.9630135841376
2020-08-25,2162.856012074789
2020-08-26,2173.74901056544
2020-08-27,2184.6420090560914
2020-08-28,2195.535007546743
2020-08-29,2206.4280060373944
2020-08-30,2217.3210045280457
2020-08-31,2228.214003018697
2020-09-01,2239.1070015093487
2020-09-02,2250.0
2020-09-03,2300.0
2020-09-04,2425.0
2020-09-05,2540.0
2020-09-06,2616.6666666666665
2020-09-07,2707.1428571428573
2020-09-08,2878.5714285714284
2020-09-09,2992.8571428571427
2020-09-10,3164.285714285714
2020-09-11,3192.8571428571427
2020-09-12,3192.8571428571427
2020-09-13,3264.285714285714
2020-09-14,3300.0
2020-09-15,3314.285714285714
2020-09-16,3371.4285714285716
2020-09-17,3285.714285714286
2020-09-18,3171.4285714285716
2020-09-19,3064.285714285714
2020-09-20,2935.714285714286
2020-09-21,2685.714285714286
2020-09-22,2457.1428571428573
2020-09-23,2328.5714285714284
2020-09-24,2221.4285714285716
2020-09-25,2225.0
2020-09-26,2220.0
2020-09-27,2125.0
2020-09-28,2250.0
2020-09-29,2375.0
2020-09-30,2500.0
>>>>>>> 6ac9248b3ef33a88bcb4b748e11d3743f40f9979
